-5.72149276733398E-07
-6.51106953620911E-07
-9.68891739845276E-07
-1.51343035697937E-06
-2.27485108375549E-06
-3.23774862289429E-06
-4.37582874298096E-06
-5.66465187072754E-06
-7.07393836975098E-06
-8.57086753845215E-06
-1.01237087249756E-05
-1.16942291259766E-05
-1.32492942810059E-05
-1.47630767822266E-05
-1.62112808227539E-05
-1.75747528076172E-05
-1.88407325744629E-05
-1.99987964630127E-05
-2.1043004989624E-05
-2.19735317230225E-05
-2.27877426147461E-05
-2.34822578430176E-05
-2.40557823181152E-05
-2.45048751831055E-05
-2.4827880859375E-05
-2.50255718231201E-05
-2.50992317199707E-05
-2.50517654418945E-05
-2.48863563537598E-05
-2.46050758361816E-05
-2.42097110748291E-05
-2.37026271820068E-05
-2.30858707427979E-05
-2.23616638183594E-05
-2.15318431854248E-05
-2.05972499847412E-05
-1.95603427886963E-05
-1.84253826141357E-05
-1.71977272033691E-05
-1.58839912414551E-05
-1.44910984039307E-05
-1.30258808135986E-05
-1.14959516525269E-05
-9.90968990325928E-06
-8.27526950836182E-06
-6.6007137298584E-06
-4.89378595352173E-06
-3.16180205345154E-06
-1.41221964359283E-06
3.47270280122757E-07
2.10901498794556E-06
3.86545991897583E-06
5.60918521881103E-06
7.33302688598633E-06
9.03000354766846E-06
1.06932306289673E-05
1.23160305023193E-05
1.38920726776123E-05
1.54155788421631E-05
1.68812713623047E-05
1.82842864990234E-05
1.96200656890869E-05
2.08842639923096E-05
2.20729808807373E-05
2.31828289031982E-05
2.42108955383301E-05
2.5154670715332E-05
2.60119743347168E-05
2.6781078338623E-05
2.74608192443848E-05
2.8050651550293E-05
2.85505332946777E-05
2.89608726501465E-05
2.92824211120605E-05
2.95162734985352E-05
2.96638679504395E-05
2.97268333435059E-05
2.97069244384766E-05
2.96060237884521E-05
2.94260711669922E-05
2.91691493988037E-05
2.88375816345215E-05
2.84339294433594E-05
2.79610404968262E-05
2.7422046661377E-05
2.68203086853027E-05
2.61594219207764E-05
2.5443265914917E-05
2.46759643554687E-05
2.38618221282959E-05
2.30052604675293E-05
2.21107292175293E-05
2.11827335357666E-05
2.0225902557373E-05
1.9245002746582E-05
1.82448577880859E-05
1.72302532196045E-05
1.62058982849121E-05
1.51764221191406E-05
1.41464052200317E-05
1.31203842163086E-05
1.21027536392212E-05
1.10976619720459E-05
1.01090202331543E-05
9.14060401916504E-06
8.19614219665527E-06
7.27939224243164E-06
6.39415073394775E-06
5.54413986206055E-06
4.7329626083374E-06
3.96420121192932E-06
3.24150419235229E-06
2.56843137741089E-06
1.94833493232727E-06
1.3841460943222E-06
8.781898021698E-07
4.32389616966248E-07
4.8408854752779E-08
-2.72434085607529E-07
-5.29357254505157E-07
-7.22171545028687E-07
-8.51259112358093E-07
-9.17409598827362E-07
-9.21578526496887E-07
-8.65030169487E-07
-7.49553024768829E-07
-5.77544033527374E-07
-3.51874232292175E-07
-7.56316334009171E-08
2.47996911406517E-07
6.15712404251099E-07
1.02393281459808E-06
1.46871316432953E-06
1.94588661193848E-06
2.45142388343811E-06
2.98153686523437E-06
3.53222227096558E-06
4.0990948677063E-06
4.67719793319702E-06
5.26089096069336E-06
5.84451389312744E-06
6.42269992828369E-06
6.98986148834229E-06
7.54000473022461E-06
8.06738376617432E-06
8.56657028198242E-06
9.03311538696289E-06
9.46414947509766E-06
9.85691452026367E-06
1.02083129882812E-05
1.05153970718384E-05
1.07754220962524E-05
1.09860954284668E-05
1.11456871032715E-05
1.12521305084229E-05
1.13026075363159E-05
1.12946863174438E-05
1.12265663146973E-05
1.10975790023804E-05
1.09079284667969E-05
1.06567249298096E-05
1.03425598144531E-05
9.96421146392822E-06
9.52067184448242E-06
9.01321601867676E-06
8.44462013244629E-06
7.81652450561523E-06
7.13147830963135E-06
6.39564514160156E-06
5.61787033081055E-06
4.81105041503906E-06
3.99118089675903E-06
3.17091393470764E-06
2.36103630065918E-06
1.57335197925568E-06
8.18504154682159E-07
1.06490612030029E-07
-5.5610591173172E-07
-1.17136335372925E-06
-1.7484894990921E-06
-2.30070066452026E-06
-2.84208750724792E-06
-3.38549709320068E-06
-3.94900822639465E-06
-4.55900049209595E-06
-5.2450122833252E-06
-6.03430032730103E-06
-6.94637441635132E-06
-7.99095773696899E-06
-9.17789840698242E-06
-1.05255918502808E-05
-1.20512199401855E-05
-1.37618007659912E-05
-1.56453533172607E-05
-1.76723976135254E-05
-1.97972793579102E-05
-2.19464702606201E-05
-2.40386543273926E-05
-2.5956880569458E-05
-2.7530689239502E-05
-2.8620153427124E-05
-2.91205348968506E-05
-2.89785423278809E-05
-2.82836971282959E-05
-2.72054080963135E-05
-2.5880277633667E-05
-2.45228157043457E-05
-2.33898677825928E-05
-2.25737075805664E-05
-2.21744613647461E-05
-2.2015172958374E-05
-2.1369571685791E-05
-1.94586296081543E-05
-1.54161195755005E-05
-9.08785629272461E-06
-1.50106978416443E-06
6.33401727676392E-06
1.35091743469238E-05
2.1655632019043E-05
3.47997741699219E-05
5.47588577270508E-05
8.12231597900391E-05
0.00010677740478515600
0.00011745722198486300
0.00010297914123535200
5.66657638549805E-05
-1.7387939453125E-05
-0.00010288477325439500
-0.00018314541625976600
-0.00024173385620117200
-0.00027075988769531200
-0.00027449746704101600
-0.00026189712524414100
-0.00024527375793457000
-0.00023232415771484400
-0.00022387733459472700
-0.00021736743164062500
-0.00020802101135253900
-0.00019443154907226600
-0.00017804266357421900
-0.00016107595825195300
-0.00014544952392578100
-0.00013110385131835900
-0.00011817824554443400
-0.00010647918701171900
-9.71780853271484E-05
-9.1656982421875E-05
-8.71401443481445E-05
-8.17118225097656E-05
-7.2618766784668E-05
-5.6983154296875E-05
-3.86059303283691E-05
-2.04445934295654E-05
-4.77511310577393E-06
4.84335517883301E-06
1.02850036621094E-05
1.33278751373291E-05
1.41043787002563E-05
1.43904266357422E-05
1.39148349761963E-05
1.19217357635498E-05
8.99631309509277E-06
5.37190961837769E-06
1.32230091094971E-06
-2.47881698608398E-06
-5.6820821762085E-06
-8.47773551940918E-06
-1.08864612579346E-05
-1.28285474777222E-05
-1.43820266723633E-05
-1.54672050476074E-05
-1.59739532470703E-05
-1.60183029174805E-05
-1.57014532089233E-05
-1.49175004959106E-05
-1.36511116027832E-05
-1.19257669448853E-05
-9.72452068328857E-06
-7.17594861984253E-06
-4.40731048583984E-06
-1.47306728363037E-06
1.54056966304779E-06
4.54088115692139E-06
7.46043968200684E-06
1.02288904190063E-05
1.27953290939331E-05
1.51560659408569E-05
1.73068771362305E-05
1.9246395111084E-05
2.09889183044434E-05
2.25389442443848E-05
2.39130706787109E-05
2.5137300491333E-05
2.62320327758789E-05
2.72274131774902E-05
2.81547241210938E-05
2.90453777313232E-05
2.99364395141602E-05
3.0854362487793E-05
3.18141937255859E-05
3.28268051147461E-05
3.38951454162598E-05
3.5016357421875E-05
3.61884956359863E-05
3.74033203125E-05
3.86466636657715E-05
3.99097595214844E-05
4.11835021972656E-05
4.24587249755859E-05
4.37298393249512E-05
4.49872665405273E-05
4.62185592651367E-05
4.7411735534668E-05
4.85538177490234E-05
4.96331939697266E-05
5.06411972045898E-05
5.15692672729492E-05
5.24089622497559E-05
5.3153621673584E-05
5.37973136901855E-05
5.43357772827148E-05
5.47666816711426E-05
5.50863876342773E-05
5.52903137207031E-05
5.53742599487305E-05
5.53341751098633E-05
5.51671752929687E-05
5.48716049194336E-05
5.44460296630859E-05
5.38893814086914E-05
5.32019424438477E-05
5.23853149414062E-05
5.1442195892334E-05
5.03763465881348E-05
4.91918487548828E-05
4.78930168151855E-05
4.6484748840332E-05
4.4972541809082E-05
4.33623809814453E-05
4.16606750488281E-05
3.98741073608398E-05
3.80095520019531E-05
3.60742607116699E-05
3.40761413574219E-05
3.20235252380371E-05
2.9925048828125E-05
2.77895030975342E-05
2.5625602722168E-05
2.34421825408936E-05
2.1248233795166E-05
1.90527000427246E-05
1.68642921447754E-05
1.46913776397705E-05
1.25418872833252E-05
1.04234209060669E-05
8.34329509735107E-06
6.30829858779907E-06
4.32457637786865E-06
2.39763569831848E-06
5.32254576683044E-07
-1.26740336418152E-06
-2.99774408340454E-06
-4.65595817565918E-06
-6.24000358581543E-06
-7.74849700927734E-06
-9.18068599700928E-06
-1.05363082885742E-05
-1.18154916763306E-05
-1.30188236236572E-05
-1.41473264694214E-05
-1.5202353477478E-05
-1.61855602264404E-05
-1.70988693237305E-05
-1.79444236755371E-05
-1.87246532440186E-05
-1.94423084259033E-05
-2.01003875732422E-05
-2.07021369934082E-05
-2.12510089874268E-05
-2.1750602722168E-05
-2.22047328948975E-05
-2.26173992156982E-05
-2.29927101135254E-05
-2.33348007202148E-05
-2.36477890014648E-05
-2.39356803894043E-05
-2.42023582458496E-05
-2.44515533447266E-05
-2.46867370605469E-05
-2.49110870361328E-05
-2.51274833679199E-05
-2.53384780883789E-05
-2.5546365737915E-05
-2.57531890869141E-05
-2.59607238769531E-05
-2.61704750061035E-05
-2.63837471008301E-05
-2.66016273498535E-05
-2.6825080871582E-05
-2.70549373626709E-05
-2.72918910980225E-05
-2.75365180969238E-05
-2.77893524169922E-05
-2.80509033203125E-05
-2.83217220306396E-05
-2.86024055480957E-05
-2.88935508728027E-05
-2.9195743560791E-05
-2.95095634460449E-05
-2.9835563659668E-05
-3.0174222946167E-05
-3.05259342193603E-05
-3.08908729553223E-05
-3.12689781188965E-05
-3.16600437164307E-05
-3.20637283325195E-05
-3.24795989990234E-05
-3.29071578979492E-05
-3.33457870483398E-05
-3.37947959899902E-05
-3.42535057067871E-05
-3.47212371826172E-05
-3.51973304748535E-05
-3.56810760498047E-05
-3.61716537475586E-05
-3.66681251525879E-05
-3.7169548034668E-05
-3.76749534606934E-05
-3.81833534240723E-05
-3.86937255859375E-05
-3.92049217224121E-05
-3.97156677246094E-05
-4.02246932983398E-05
-4.07306480407715E-05
-4.12320022583008E-05
-4.17269973754883E-05
-4.22134780883789E-05
-4.26889114379883E-05
-4.31505432128906E-05
-4.35954933166504E-05
-4.40206489562988E-05
-4.44227180480957E-05
-4.47982864379883E-05
-4.51438522338867E-05
-4.5456169128418E-05
-4.57323341369629E-05
-4.59695892333984E-05
-4.61652565002441E-05
-4.63166656494141E-05
-4.6421257019043E-05
-4.64768257141113E-05
-4.64815063476562E-05
-4.64336318969727E-05
-4.63316955566406E-05
-4.61742706298828E-05
-4.59602203369141E-05
-4.56889762878418E-05
-4.53603248596191E-05
-4.49742050170898E-05
-4.45307693481445E-05
-4.40301246643066E-05
-4.34723777770996E-05
-4.28580703735352E-05
-4.21878662109375E-05
-4.14623184204102E-05
-4.0682258605957E-05
-3.98486442565918E-05
-3.89627304077148E-05
-3.80265769958496E-05
-3.70429344177246E-05
-3.60148963928223E-05
-3.49457664489746E-05
-3.38389434814453E-05
-3.26979446411133E-05
-3.1526294708252E-05
-3.0327033996582E-05
-2.91024322509766E-05
-2.78541564941406E-05
-2.65833168029785E-05
-2.52916488647461E-05
-2.39811458587646E-05
-2.26528835296631E-05
-2.13084049224854E-05
-1.99496307373047E-05
-1.85788593292236E-05
-1.71993255615234E-05
-1.58136386871338E-05
-1.44229583740234E-05
-1.30280246734619E-05
-1.16302843093872E-05
-1.02315998077393E-05
-8.83592414855957E-06
-7.44729661941528E-06
-6.06776142120361E-06
-4.7005763053894E-06
-3.34729313850403E-06
-2.01047301292419E-06
-6.9625186920166E-07
5.95076620578766E-07
1.8681755065918E-06
3.13140273094177E-06
4.39810562133789E-06
5.67765426635742E-06
6.97313499450684E-06
8.2900333404541E-06
9.63654327392578E-06
1.10168199539185E-05
1.24372434616089E-05
1.38961458206177E-05
1.53753280639648E-05
1.68597450256348E-05
1.83298072814941E-05
1.97666854858398E-05
2.1164665222168E-05
2.25046424865723E-05
2.37592391967773E-05
2.4894380569458E-05
2.58712177276611E-05
2.66819915771484E-05
2.73325366973877E-05
2.78180885314941E-05
2.81301021575928E-05
2.8242919921875E-05
2.81004943847656E-05
2.77066516876221E-05
2.71342658996582E-05
2.64033908843994E-05
2.56081829071045E-05
2.48479881286621E-05
2.41136150360107E-05
2.35627460479736E-05
2.34421997070313E-05
2.38244724273682E-05
2.4706298828125E-05
2.61180591583252E-05
2.76091575622559E-05
2.86524543762207E-05
2.93132286071777E-05
2.91682109832764E-05
2.85223350524902E-05
2.91998252868652E-05
3.13131980895996E-05
3.42710189819336E-05
3.71347885131836E-05
3.55769577026367E-05
2.8722339630127E-05
2.1105676651001E-05
1.75075149536133E-05
2.66613597869873E-05
5.38242416381836E-05
9.39481430053711E-05
0.00013877444458007800
0.00017617442321777300
0.00019322183227539100
0.000183696533203125
0.00014756121826171900
8.71022033691406E-05
7.78322982788086E-06
-7.99531555175781E-05
-0.0001677857666015630
-0.00024498663330078100
-0.00029655813598632800
-0.00031744497680664100
-0.00030733889770507800
-0.000270504150390625
-0.00022393151855468700
-0.00018121145629882800
-0.00014931845092773400
-0.00013366946411132800
-0.0001286256103515630
-0.00012547361755371100
-0.00012067845916748000
-0.00011061587524414100
-9.63527984619141E-05
-8.25989151000977E-05
-7.07326354980469E-05
-6.12670669555664E-05
-5.36697235107422E-05
-4.57271919250488E-05
-3.66818161010742E-05
-2.6793872833252E-05
-1.6374095916748E-05
-6.12043952941894E-06
3.44607591629028E-06
1.20950517654419E-05
1.95580272674561E-05
2.56692924499512E-05
3.04378204345703E-05
3.39567794799805E-05
3.63495750427246E-05
3.77370986938477E-05
3.82567825317383E-05
3.80603141784668E-05
3.73175811767578E-05
3.61877593994141E-05
3.47754669189453E-05
3.31783103942871E-05
3.1513843536377E-05
2.99057006835938E-05
2.84849739074707E-05
2.73453769683838E-05
2.65310382843018E-05
2.60715293884277E-05
2.59847259521484E-05
2.62793998718262E-05
2.69591197967529E-05
2.80038909912109E-05
2.93667621612549E-05
3.10021572113037E-05
3.28691444396973E-05
3.49247741699219E-05
3.71329154968262E-05
3.94377822875977E-05
4.17613754272461E-05
4.40387229919434E-05
4.62147102355957E-05
4.82517776489258E-05
5.01355438232422E-05
5.1852912902832E-05
5.33924407958984E-05
5.47560539245605E-05
5.59560127258301E-05
5.70110855102539E-05
5.79485092163086E-05
5.87890472412109E-05
5.95452728271484E-05
6.02353134155273E-05
6.08780670166016E-05
6.14986724853516E-05
6.21301574707031E-05
6.27954978942871E-05
6.35088882446289E-05
6.428076171875E-05
6.51149673461914E-05
6.60137939453125E-05
6.6979248046875E-05
6.80056610107422E-05
6.90806350708008E-05
7.01930694580078E-05
7.13316040039062E-05
7.24869537353516E-05
7.36534118652344E-05
7.48220443725586E-05
7.59817504882813E-05
7.71215362548828E-05
7.82294921875E-05
7.92957763671875E-05
8.03128967285156E-05
8.12728652954102E-05
8.21676177978516E-05
8.29904022216797E-05
8.37349243164062E-05
8.43965606689453E-05
8.49724960327148E-05
8.54587173461914E-05
8.58505096435547E-05
8.61436538696289E-05
8.63339462280273E-05
8.6417984008789E-05
8.63934783935547E-05
8.62582244873047E-05
8.6010368347168E-05
8.56494522094726E-05
8.51761932373047E-05
8.45922927856445E-05
8.39005889892578E-05
8.31044464111328E-05
8.22076873779297E-05
8.12151184082031E-05
8.01323089599609E-05
7.8965446472168E-05
7.7721321105957E-05
7.64071197509766E-05
7.50303268432617E-05
7.35990142822266E-05
7.21217041015625E-05
7.06070861816406E-05
6.90639266967773E-05
6.75009536743164E-05
6.59266815185547E-05
6.43497467041016E-05
6.27788314819336E-05
6.12223892211914E-05
5.96887474060059E-05
5.81859970092773E-05
5.67219314575195E-05
5.53042068481445E-05
5.39402809143066E-05
5.26371002197266E-05
5.14010925292969E-05
5.02381439208984E-05
4.91534614562988E-05
4.8151683807373E-05
4.72368240356445E-05
4.64120407104492E-05
4.56796646118164E-05
4.50412521362305E-05
4.44975700378418E-05
4.4048713684082E-05
4.36941337585449E-05
4.34325942993164E-05
4.32621650695801E-05
4.31804008483887E-05
4.31842575073242E-05
4.32702217102051E-05
4.34343757629395E-05
4.36723289489746E-05
4.39793243408203E-05
4.43503036499023E-05
4.47799377441406E-05
4.52627029418945E-05
4.57929420471191E-05
4.63648490905762E-05
4.69724617004395E-05
4.76097373962402E-05
4.82705116271973E-05
4.89485321044922E-05
4.96375312805176E-05
5.03312034606934E-05
5.10232772827148E-05
5.17075958251953E-05
5.23781547546387E-05
5.30291786193848E-05
5.36552047729492E-05
5.42511444091797E-05
5.48122711181641E-05
5.53342895507812E-05
5.58133010864258E-05
5.62457885742187E-05
5.66286849975586E-05
5.69593200683594E-05
5.7235424041748E-05
5.74550857543945E-05
5.76167449951172E-05
5.77191772460937E-05
5.77615699768066E-05
5.77434692382812E-05
5.76647567749023E-05
5.75255889892578E-05
5.7326343536377E-05
5.7067626953125E-05
5.67503356933594E-05
5.63756294250488E-05
5.5944881439209E-05
5.54597206115723E-05
5.49219512939453E-05
5.43336791992187E-05
5.36973762512207E-05
5.30158538818359E-05
5.22921943664551E-05
5.15297660827637E-05
5.07321243286133E-05
4.99029579162598E-05
4.90462417602539E-05
4.81661071777344E-05
4.72667007446289E-05
4.63521423339844E-05
4.54265518188477E-05
4.44940185546875E-05
4.35587463378906E-05
4.26250114440918E-05
4.16970024108887E-05
4.07787895202637E-05
3.98743743896484E-05
3.89877243041992E-05
3.81228103637695E-05
3.7283576965332E-05
3.64737243652344E-05
3.56966323852539E-05
3.49555358886719E-05
3.42535629272461E-05
3.35939140319824E-05
3.29797515869141E-05
3.24138565063477E-05
3.18986968994141E-05
3.14364547729492E-05
3.1028995513916E-05
3.06780986785889E-05
3.03852920532227E-05
3.01513900756836E-05
2.99765796661377E-05
2.98607215881348E-05
2.98032608032227E-05
2.9803503036499E-05
2.98607559204102E-05
2.99735221862793E-05
3.01395225524902E-05
3.03561553955078E-05
3.06202964782715E-05
3.09286060333252E-05
3.12776737213135E-05
3.16634540557861E-05
3.20811767578125E-05
3.25259323120117E-05
3.29927978515625E-05
3.34771881103516E-05
3.39749908447266E-05
3.44818344116211E-05
3.4993293762207E-05
3.55049781799316E-05
3.6012336730957E-05
3.65116348266602E-05
3.70001525878906E-05
3.74756622314453E-05
3.79368705749512E-05
3.83828659057617E-05
3.88118743896484E-05
3.92216758728027E-05
3.96103134155273E-05
3.99756660461426E-05
4.0315299987793E-05
4.06255416870117E-05
4.09003944396973E-05
4.113330078125E-05
4.13182983398437E-05
4.14521560668945E-05
4.15352516174316E-05
4.15670928955078E-05
4.15451431274414E-05
4.14635543823242E-05
4.13129196166992E-05
4.10877151489258E-05
4.07889175415039E-05
4.04224700927734E-05
3.99973373413086E-05
3.95198822021484E-05
3.89950180053711E-05
3.84358100891113E-05
3.78641777038574E-05
3.73014678955078E-05
3.67666168212891E-05
3.62598838806152E-05
3.57592849731445E-05
3.52523651123047E-05
3.47340621948242E-05
3.42160377502441E-05
3.37372131347656E-05
3.33114776611328E-05
3.29190292358398E-05
3.25307159423828E-05
3.20999336242676E-05
3.15950508117676E-05
3.10342788696289E-05
3.03914470672607E-05
2.95694694519043E-05
2.85441989898682E-05
2.73507423400879E-05
2.61293506622314E-05
2.52264556884766E-05
2.49316272735596E-05
2.53006114959717E-05
2.63363914489746E-05
2.80111274719238E-05
3.01307258605957E-05
3.24868659973145E-05
3.47054557800293E-05
3.59172210693359E-05
3.52359809875488E-05
3.22709503173828E-05
2.69676094055176E-05
1.96258754730225E-05
1.10257558822632E-05
1.94014167785645E-06
-6.81369161605835E-06
-1.35166149139404E-05
-1.6062126159668E-05
-1.30175704956055E-05
-3.28162002563477E-06
1.26082000732422E-05
3.21284446716309E-05
5.33332443237305E-05
7.43667297363281E-05
9.5468505859375E-05
0.00011935090637207000
0.00014610997009277300
0.00017403018188476600
0.00019551005554199200
0.00019760392761230500
0.00017179733276367200
0.0001128822021484380
2.57559795379639E-05
-7.34374084472656E-05
-0.00016802780151367200
-0.00024022418212890600
-0.00028033630371093700
-0.0002904774169921880
-0.00027881341552734400
-0.00025945922851562500
-0.0002419852294921880
-0.00022894100952148400
-0.0002184571533203130
-0.00020410768127441400
-0.0001835609893798830
-0.00015865335083007800
-0.00013191523742675800
-0.00010722972869873000
-8.63034057617187E-05
-6.85609588623047E-05
-5.39484901428223E-05
-4.25291786193848E-05
-3.37784271240234E-05
-2.71556911468506E-05
-2.19535942077637E-05
-1.71717567443848E-05
-1.24258031845093E-05
-7.84722137451172E-06
-3.2370126247406E-06
1.8121657371521E-06
7.32957935333252E-06
1.31621551513672E-05
1.89306983947754E-05
2.39199028015137E-05
2.78126811981201E-05
3.06649284362793E-05
3.24362716674805E-05
3.31027565002441E-05
3.27397041320801E-05
3.1417407989502E-05
2.939404296875E-05
2.71388511657715E-05
2.49472389221191E-05
2.29835968017578E-05
2.13828659057617E-05
2.01731948852539E-05
1.93935604095459E-05
1.91145095825195E-05
1.9333309173584E-05
1.99983406066895E-05
2.10695343017578E-05
2.24907398223877E-05
2.42190246582031E-05
2.6238302230835E-05
2.8499340057373E-05
3.09445953369141E-05
3.35063323974609E-05
3.60906410217285E-05
3.86267929077148E-05
4.10613021850586E-05
4.33498268127441E-05
4.54734802246094E-05
4.74192733764648E-05
4.91703109741211E-05
5.07241287231445E-05
5.20892639160156E-05
5.32754211425781E-05
5.43043518066406E-05
5.51947441101074E-05
5.59555816650391E-05
5.66059684753418E-05
5.71678848266602E-05
5.76682357788086E-05
5.81440277099609E-05
5.86209182739258E-05
5.91123428344727E-05
5.96278266906738E-05
6.01692886352539E-05
6.07352294921875E-05
6.1325439453125E-05
6.1932975769043E-05
6.25438003540039E-05
6.31462173461914E-05
6.3728588104248E-05
6.42807540893555E-05
6.47967071533203E-05
6.52676086425781E-05
6.56817779541016E-05
6.60272827148437E-05
6.62913360595703E-05
6.64631118774414E-05
6.65348968505859E-05
6.64992523193359E-05
6.63489227294922E-05
6.60780944824219E-05
6.5681884765625E-05
6.51573104858398E-05
6.45036315917969E-05
6.37194290161133E-05
6.28024826049805E-05
6.17510719299316E-05
6.05638389587402E-05
5.92404937744141E-05
5.7782112121582E-05
5.61902542114258E-05
5.4466869354248E-05
5.2615406036377E-05
5.06407890319824E-05
4.85491676330566E-05
4.63479499816895E-05
4.4045280456543E-05
4.16498031616211E-05
3.9171028137207E-05
3.66193161010742E-05
3.40055999755859E-05
3.13412952423096E-05
2.86381187438965E-05
2.59078559875488E-05
2.31625080108643E-05
2.04143753051758E-05
1.76757621765137E-05
1.49588394165039E-05
1.22755317687988E-05
9.63730049133301E-06
7.05533123016357E-06
4.54059219360352E-06
2.10358643531799E-06
-2.45758414268494E-07
-2.49814891815186E-06
-4.64501762390137E-06
-6.67841625213623E-06
-8.59098625183106E-06
-1.03762283325195E-05
-1.20285949707031E-05
-1.35434417724609E-05
-1.49171161651611E-05
-1.61468753814697E-05
-1.72308654785156E-05
-1.81683959960937E-05
-1.89599285125732E-05
-1.9606990814209E-05
-2.01121578216553E-05
-2.0478946685791E-05
-2.07117195129395E-05
-2.08157520294189E-05
-2.07971496582031E-05
-2.06626434326172E-05
-2.04195175170898E-05
-2.00754890441895E-05
-1.96385841369629E-05
-1.91172142028809E-05
-1.85201072692871E-05
-1.78561668395996E-05
-1.71344165802002E-05
-1.63639526367187E-05
-1.55538864135742E-05
-1.47133922576904E-05
-1.38516864776611E-05
-1.29778385162354E-05
-1.21006946563721E-05
-1.12288093566895E-05
-1.03704395294189E-05
-9.53356742858887E-06
-8.72584342956543E-06
-7.95449161529541E-06
-7.22620868682861E-06
-6.5471363067627E-06
-5.92291641235352E-06
-5.35871076583862E-06
-4.85912275314331E-06
-4.42805767059326E-06
-4.06864833831787E-06
-3.78321027755737E-06
-3.57333135604858E-06
-3.44001770019531E-06
-3.38369035720825E-06
-3.40411186218262E-06
-3.50041151046753E-06
-3.67121458053589E-06
-3.91475677490234E-06
-4.22903251647949E-06
-4.61182117462158E-06
-5.06046485900879E-06
-5.57180166244507E-06
-6.14231586456299E-06
-6.76823711395264E-06
-7.44552421569824E-06
-8.16987037658691E-06
-8.9365406036377E-06
-9.74029159545898E-06
-1.05757026672363E-05
-1.14374141693115E-05
-1.23201370239258E-05
-1.32185297012329E-05
-1.41270484924316E-05
-1.50399532318115E-05
-1.59513845443726E-05
-1.68556346893311E-05
-1.77472267150879E-05
-1.86205940246582E-05
-1.94699611663818E-05
-2.02895889282227E-05
-2.10740451812744E-05
-2.18185005187988E-05
-2.2518970489502E-05
-2.31719779968262E-05
-2.37741317749023E-05
-2.43222560882568E-05
-2.48136959075928E-05
-2.52463550567627E-05
-2.56185359954834E-05
-2.59286689758301E-05
-2.6174976348877E-05
-2.63555793762207E-05
-2.64692440032959E-05
-2.65156879425049E-05
-2.64951438903809E-05
-2.64080657958984E-05
-2.62553844451904E-05
-2.60385131835937E-05
-2.57599086761475E-05
-2.54234027862549E-05
-2.50329360961914E-05
-2.45918254852295E-05
-2.41032314300537E-05
-2.35706577301025E-05
-2.2997989654541E-05
-2.23895816802979E-05
-2.17494812011719E-05
-2.10804672241211E-05
-2.03854293823242E-05
-1.96687889099121E-05
-1.8936767578125E-05
-1.81964912414551E-05
-1.74546699523926E-05
-1.67170486450195E-05
-1.59885511398315E-05
-1.52748908996582E-05
-1.45831680297852E-05
-1.39203081130981E-05
-1.32899608612061E-05
-1.26929216384888E-05
-1.21310338973999E-05
-1.1608060836792E-05
-1.11334047317505E-05
-1.07207736968994E-05
-1.0378870010376E-05
-1.01108131408691E-05
-9.91782855987549E-06
-9.80060005187988E-06
-9.7586030960083E-06
-9.78754806518555E-06
-9.87211036682129E-06
-9.98460960388184E-06
-1.00977210998535E-05
-1.0192702293396E-05
-1.02643728256226E-05
-1.03158311843872E-05
-1.03466997146606E-05
-1.03536968231201E-05
-1.0326512336731E-05
-1.02563323974609E-05
-1.01498374938965E-05
-1.00178775787354E-05
-9.86672973632812E-06
-9.70156764984131E-06
-9.53546333312988E-06
-9.40141296386719E-06
-9.36822319030762E-06
-9.53214550018311E-06
-9.9807767868042E-06
-1.07794303894043E-05
-1.19678745269775E-05
-1.35681257247925E-05
-1.55942478179932E-05
-1.80470657348633E-05
-2.09190521240234E-05
-2.41778373718262E-05
-2.77753601074219E-05
-3.16748867034912E-05
-3.58298492431641E-05
-4.0192985534668E-05
-4.47044792175293E-05
-4.9242862701416E-05
-5.36294403076172E-05
-5.76562156677246E-05
-6.10683975219726E-05
-6.36101150512695E-05
-6.51482696533203E-05
-6.55861511230469E-05
-6.48879547119141E-05
-6.32194786071777E-05
-6.07715721130371E-05
-5.77327041625977E-05
-5.44389724731445E-05
-5.11824722290039E-05
-4.79289665222168E-05
-4.46052436828613E-05
-4.10834541320801E-05
-3.65939979553223E-05
-3.0270450592041E-05
-2.16418151855469E-05
-9.94727516174316E-06
4.54466819763184E-06
1.98007335662842E-05
3.53018646240234E-05
5.12297058105469E-05
6.75962677001953E-05
8.62399597167969E-05
0.00010470733642578100
0.00011600769805908200
0.00011447428894043000
9.47843322753906E-05
5.67050285339355E-05
6.47347068786621E-06
-5.0677619934082E-05
-0.00011076011657714800
-0.00016908026123046900
-0.00022169758605957000
-0.00026330676269531200
-0.00028694476318359400
-0.00029169534301757800
-0.000282149169921875
-0.00026372427368164100
-0.00024385745239257800
-0.0002256897735595700
-0.00020742373657226600
-0.00018887870788574200
-0.00016962475585937500
-0.00015009057617187500
-0.00013280316162109400
-0.0001184812774658200
-0.00010654319000244100
-9.64756622314453E-05
-8.7066650390625E-05
-7.72607879638672E-05
-6.68578033447266E-05
-5.57935791015625E-05
-4.4111888885498E-05
-3.22210388183594E-05
-2.05727672576904E-05
-9.53754329681396E-06
4.23320561647415E-07
8.87738227844238E-06
1.56615018844604E-05
2.07342224121094E-05
2.41320629119873E-05
2.60366802215576E-05
2.66303462982178E-05
2.6084285736084E-05
2.46316566467285E-05
2.25070877075195E-05
1.98914890289307E-05
1.69517345428467E-05
1.38444833755493E-05
1.07187051773071E-05
7.74196720123291E-06
5.06012535095215E-06
2.77175140380859E-06
9.43613767623901E-07
-3.81642371416092E-07
-1.17731499671936E-06
-1.42791342735291E-06
-1.14097714424133E-06
-3.54648321866989E-07
8.75815093517303E-07
2.48917698860168E-06
4.42610597610474E-06
6.63143348693848E-06
9.04539680480957E-06
1.15938892364502E-05
1.41887302398682E-05
1.67516536712646E-05
1.92275810241699E-05
2.15821857452393E-05
2.37983436584473E-05
2.58631706237793E-05
2.77659301757812E-05
2.95071983337402E-05
3.11026725769043E-05
3.25775680541992E-05
3.39586486816406E-05
3.52679977416992E-05
3.65216293334961E-05
3.77379684448242E-05
3.89397087097168E-05
4.01543884277344E-05
4.1413028717041E-05
4.27360725402832E-05
4.41326522827148E-05
4.5606315612793E-05
4.71550369262695E-05
4.87753448486328E-05
5.04625244140625E-05
5.22051544189453E-05
5.39850158691406E-05
5.57845649719238E-05
5.75883941650391E-05
5.93833198547363E-05
6.11587257385254E-05
6.29011192321777E-05
6.45943832397461E-05
6.62221603393555E-05
6.7768310546875E-05
6.92191314697266E-05
7.05627593994141E-05
7.17872009277344E-05
7.28807830810547E-05
7.3833251953125E-05
7.4635612487793E-05
7.5280876159668E-05
7.57638854980469E-05
7.60786895751953E-05
7.62189865112305E-05
7.61793594360352E-05
7.59549942016602E-05
7.554248046875E-05
7.49399566650391E-05
7.41462478637695E-05
7.31610870361328E-05
7.19861907958984E-05
7.06249847412109E-05
6.90823059082031E-05
6.73644409179687E-05
6.54784088134766E-05
6.34318923950195E-05
6.12336654663086E-05
5.88933753967285E-05
5.64213981628418E-05
5.3828727722168E-05
5.11268119812012E-05
4.83276214599609E-05
4.54439353942871E-05
4.2489143371582E-05
3.94770469665527E-05
3.64216690063477E-05
3.33370361328125E-05
3.02372779846191E-05
2.71366729736328E-05
2.40494499206543E-05
2.09895687103271E-05
1.79706554412842E-05
1.50058622360229E-05
1.21078777313232E-05
9.28901100158691E-06
6.56096649169922E-06
3.93460059165955E-06
1.41985201835632E-06
-9.74363386631012E-07
-3.2402184009552E-06
-5.37095642089844E-06
-7.36096096038818E-06
-9.20596885681152E-06
-1.09030246734619E-05
-1.2450366973877E-05
-1.38473682403564E-05
-1.50943832397461E-05
-1.61926879882813E-05
-1.71445026397705E-05
-1.79529438018799E-05
-1.86219215393066E-05
-1.91560840606689E-05
-1.95608444213867E-05
-1.98423233032227E-05
-2.00074081420898E-05
-2.00636863708496E-05
-2.00193672180176E-05
-1.98832130432129E-05
-1.96644439697266E-05
-1.93727054595947E-05
-1.90179653167725E-05
-1.86104335784912E-05
-1.81604919433594E-05
-1.76786193847656E-05
-1.71753005981445E-05
-1.66609573364258E-05
-1.61458206176758E-05
-1.56398077011108E-05
-1.51524448394775E-05
-1.46927509307861E-05
-1.42691383361816E-05
-1.38893203735352E-05
-1.35602045059204E-05
-1.32878532409668E-05
-1.30774898529053E-05
-1.2933500289917E-05
-1.28594837188721E-05
-1.28582916259766E-05
-1.29320020675659E-05
-1.30819902420044E-05
-1.33090314865112E-05
-1.36132707595825E-05
-1.39942636489868E-05
-1.44510154724121E-05
-1.49818305969238E-05
-1.55843439102173E-05
-1.62556419372559E-05
-1.69922142028809E-05
-1.77899322509766E-05
-1.86441040039062E-05
-1.95493907928467E-05
-2.04998188018799E-05
-2.14889945983887E-05
-2.25101547241211E-05
-2.35561237335205E-05
-2.46193923950195E-05
-2.56921539306641E-05
-2.67664012908936E-05
-2.78342247009277E-05
-2.88879699707031E-05
-2.99201469421387E-05
-3.09235286712646E-05
-3.18911724090576E-05
-3.28165550231934E-05
-3.36938858032227E-05
-3.45180587768555E-05
-3.52845611572266E-05
-3.59894943237305E-05
-3.66294708251953E-05
-3.72016639709473E-05
-3.77040634155273E-05
-3.81353149414062E-05
-3.84944686889648E-05
-3.8781120300293E-05
-3.89952354431152E-05
-3.9137035369873E-05
-3.92074928283691E-05
-3.92081642150879E-05
-3.91408309936523E-05
-3.90077743530273E-05
-3.88117561340332E-05
-3.85558891296387E-05
-3.82442398071289E-05
-3.78817672729492E-05
-3.74738616943359E-05
-3.70264625549316E-05
-3.65459823608398E-05
-3.60391311645508E-05
-3.5512866973877E-05
-3.49740219116211E-05
-3.44287071228027E-05
-3.3882251739502E-05
-3.33396377563477E-05
-3.28057403564453E-05
-3.22854270935059E-05
-3.17831268310547E-05
-3.13031349182129E-05
-3.08502159118652E-05
-3.04295024871826E-05
-3.00467262268066E-05
-2.97068061828613E-05
-2.94128704071045E-05
-2.91669864654541E-05
-2.89707813262939E-05
-2.88261604309082E-05
-2.87353248596191E-05
-2.87002696990967E-05
-2.87222938537598E-05
-2.88027095794678E-05
-2.89429092407227E-05
-2.9145092010498E-05
-2.94126586914062E-05
-2.97442665100098E-05
-3.01331634521484E-05
-3.05682220458984E-05
-3.10323333740234E-05
-3.15114898681641E-05
-3.19977436065674E-05
-3.24818344116211E-05
-3.29533157348633E-05
-3.34043045043945E-05
-3.38288803100586E-05
-3.4228832244873E-05
-3.46179237365723E-05
-3.5008544921875E-05
-3.54101333618164E-05
-3.58307571411133E-05
-3.62738456726074E-05
-3.67558860778809E-05
-3.73027114868164E-05
-3.79439277648926E-05
-3.87157974243164E-05
-3.96291275024414E-05
-4.06763305664062E-05
-4.18628845214844E-05
-4.3188720703125E-05
-4.46504364013672E-05
-4.62644577026367E-05
-4.80055961608887E-05
-4.9807975769043E-05
-5.16511154174805E-05
-5.34794387817383E-05
-5.51909103393555E-05
-5.6741756439209E-05
-5.80179138183594E-05
-5.8792121887207E-05
-5.8945426940918E-05
-5.84065933227539E-05
-5.70840225219727E-05
-5.51510696411133E-05
-5.30406875610352E-05
-5.09599533081055E-05
-4.90784301757812E-05
-4.7934154510498E-05
-4.70313568115234E-05
-4.57703895568848E-05
-4.46960983276367E-05
-4.29325752258301E-05
-4.10031471252441E-05
-4.08930130004883E-05
-4.11366653442383E-05
-4.06627922058105E-05
-3.67130889892578E-05
-2.3147481918335E-05
6.36852383613586E-07
3.13990955352783E-05
6.17695808410645E-05
7.91210403442383E-05
7.61682586669922E-05
5.13319816589355E-05
8.42886352539062E-06
-4.47483177185059E-05
-0.00010498532104492200
-0.00016967120361328100
-0.00023575460815429700
-0.00029755044555664100
-0.00034237161254882800
-0.00036192474365234400
-0.00035505279541015600
-0.000327525634765625
-0.00029330490112304700
-0.00026238461303710900
-0.00023798162841796900
-0.00021928268432617200
-0.00020148594665527300
-0.00018221040344238300
-0.00016241043090820300
-0.00014371649169921900
-0.00012799931335449200
-0.00011550934600830100
-0.00010521641540527300
-9.5960319519043E-05
-8.66770553588867E-05
-7.69877777099609E-05
-6.69428939819336E-05
-5.66987380981445E-05
-4.66001052856445E-05
-3.70053253173828E-05
-2.82247085571289E-05
-2.06187934875488E-05
-1.44756479263306E-05
-9.86676120758057E-06
-6.73892831802368E-06
-4.93924522399902E-06
-4.22983551025391E-06
-4.37754249572754E-06
-5.14778232574463E-06
-6.28685665130615E-06
-7.55964279174805E-06
-8.79634857177734E-06
-9.86812782287598E-06
-1.06689491271973E-05
-1.11280479431152E-05
-1.11801795959473E-05
-1.0775505065918E-05
-9.89799785614014E-06
-8.54646015167236E-06
-6.7342963218689E-06
-4.49548578262329E-06
-1.87576711177826E-06
1.06935262680054E-06
4.26316690444946E-06
7.61984825134277E-06
1.105126953125E-05
1.44669742584229E-05
1.78010997772217E-05
2.10044746398926E-05
2.4030345916748E-05
2.68477592468262E-05
2.94356346130371E-05
3.17814102172852E-05
3.38898010253906E-05
3.57732696533203E-05
3.74431571960449E-05
3.89172782897949E-05
4.02188491821289E-05
4.13719635009766E-05
4.24098434448242E-05
4.33686637878418E-05
4.42840805053711E-05
4.51948089599609E-05
4.61297378540039E-05
4.71083679199219E-05
4.81472358703613E-05
4.92556838989258E-05
5.04380035400391E-05
5.16962432861328E-05
5.30259094238281E-05
5.44177932739258E-05
5.5865592956543E-05
5.73628845214844E-05
5.89018249511719E-05
6.0476016998291E-05
6.20760879516601E-05
6.36904602050781E-05
6.53079833984375E-05
6.69161605834961E-05
6.85028610229492E-05
7.00578079223633E-05
7.15711517333984E-05
7.30334014892578E-05
7.44362182617187E-05
7.57715148925781E-05
7.70319213867187E-05
7.82114410400391E-05
7.93031311035156E-05
8.02991104125977E-05
8.11915435791016E-05
8.19722213745117E-05
8.2633544921875E-05
8.31690216064453E-05
8.35725173950195E-05
8.38383026123047E-05
8.39620056152344E-05
8.39403991699219E-05
8.37713623046875E-05
8.34542236328125E-05
8.29891357421875E-05
8.23770294189453E-05
8.16199340820313E-05
8.0720832824707E-05
7.96836166381836E-05
7.851318359375E-05
7.72153549194336E-05
7.57965774536133E-05
7.42640151977539E-05
7.26254348754883E-05
7.08890533447266E-05
6.90636444091797E-05
6.71583404541016E-05
6.51824188232422E-05
6.31452331542969E-05
6.10563125610352E-05
5.89252777099609E-05
5.67618789672852E-05
5.4575927734375E-05
5.2377124786377E-05
5.01751403808594E-05
4.79795684814453E-05
4.5799861907959E-05
4.36452445983887E-05
4.15246505737305E-05
3.94465675354004E-05
3.7419059753418E-05
3.54497413635254E-05
3.3545524597168E-05
3.17126274108887E-05
2.99565811157227E-05
2.82821502685547E-05
2.66933517456055E-05
2.51934604644775E-05
2.37849445343018E-05
2.24694595336914E-05
2.12479496002197E-05
2.01206436157227E-05
1.90871047973633E-05
1.81462936401367E-05
1.72965984344482E-05
1.65358905792236E-05
1.58616170883179E-05
1.52708692550659E-05
1.4760461807251E-05
1.43269672393799E-05
1.39667434692383E-05
1.36759624481201E-05
1.34506511688232E-05
1.32867393493652E-05
1.31801052093506E-05
1.31265707015991E-05
1.31218719482422E-05
1.31616983413696E-05
1.32417602539062E-05
1.33578462600708E-05
1.35058479309082E-05
1.36817598342896E-05
1.38816690444946E-05
1.41017637252808E-05
1.43384456634521E-05
1.45883865356445E-05
1.48485088348389E-05
1.51159648895264E-05
1.53881664276123E-05
1.56627807617187E-05
1.59378108978271E-05
1.62116661071777E-05
1.64831237792969E-05
1.67512168884277E-05
1.70152435302734E-05
1.72747840881348E-05
1.75297241210937E-05
1.77802734375E-05
1.80269603729248E-05
1.82704277038574E-05
1.85113830566406E-05
1.87506465911865E-05
1.89892196655273E-05
1.92282218933105E-05
1.94687957763672E-05
1.97119483947754E-05
1.99584083557129E-05
2.02088031768799E-05
2.04638118743896E-05
2.07241363525391E-05
2.09903049468994E-05
2.12625503540039E-05
2.15408782958984E-05
2.18251323699951E-05
2.21151752471924E-05
2.24108867645264E-05
2.27119178771973E-05
2.30175075531006E-05
2.332666015625E-05
2.36382522583008E-05
2.3951057434082E-05
2.42638492584229E-05
2.45751857757568E-05
2.48832473754883E-05
2.51860542297363E-05
2.54816741943359E-05
2.5768253326416E-05
2.60439205169678E-05
2.63066596984863E-05
2.65540199279785E-05
2.67831916809082E-05
2.69912662506104E-05
2.71753883361816E-05
2.73328304290771E-05
2.74605846405029E-05
2.75558700561523E-05
2.76166496276855E-05
2.76417541503906E-05
2.76312370300293E-05
2.75858173370361E-05
2.75058441162109E-05
2.73916530609131E-05
2.72445068359375E-05
2.70654335021973E-05
2.6854944229126E-05
2.66132583618164E-05
2.63391761779785E-05
2.60320873260498E-05
2.56937885284424E-05
2.5326696395874E-05
2.49333419799805E-05
2.45161991119385E-05
2.40761947631836E-05
2.3614372253418E-05
2.31333560943604E-05
2.26351146697998E-05
2.21218032836914E-05
2.15947246551514E-05
2.10528316497803E-05
2.04998168945312E-05
1.99455280303955E-05
1.9403148651123E-05
1.88905487060547E-05
1.84219245910645E-05
1.80026302337646E-05
1.76395378112793E-05
1.73413372039795E-05
1.71124877929687E-05
1.69571437835693E-05
1.6870677947998E-05
1.68363418579102E-05
1.68418312072754E-05
1.68771705627441E-05
1.69332313537598E-05
1.70043773651123E-05
1.70702362060547E-05
1.70977230072021E-05
1.70562038421631E-05
1.69126434326172E-05
1.66481876373291E-05
1.62657623291016E-05
1.57547054290771E-05
1.51095066070557E-05
1.43430013656616E-05
1.34485492706299E-05
1.24391860961914E-05
1.13565149307251E-05
1.02328834533691E-05
9.14037895202637E-06
8.18457698822021E-06
7.42436838150024E-06
6.94684934616089E-06
6.91815900802612E-06
7.46104907989502E-06
8.67396926879883E-06
1.05110864639282E-05
1.26475219726562E-05
1.4732780456543E-05
1.65240383148193E-05
1.7818868637085E-05
1.84378890991211E-05
1.8197624206543E-05
1.70766563415527E-05
1.56957149505615E-05
1.52272930145264E-05
1.69239311218262E-05
2.10179710388184E-05
2.64414672851562E-05
3.24218597412109E-05
3.92406616210938E-05
4.95675277709961E-05
6.65059127807617E-05
8.92204895019531E-05
0.00011226558685302700
0.00012597344970703100
0.00012155471801757800
9.61000213623047E-05
5.24113998413086E-05
-3.28190040588379E-06
-6.55650177001953E-05
-0.00012998254394531200
-0.00019128665161132800
-0.00024171441650390600
-0.00027214459228515600
-0.00027829376220703100
-0.00026301937866210900
-0.0002356646270751950
-0.00020738334655761700
-0.00018443757629394500
-0.00016725903320312500
-0.00015260018920898400
-0.00013741738891601600
-0.00012122237396240200
-0.00010557536315918000
-9.25744018554687E-05
-8.26486892700195E-05
-7.50343551635742E-05
-6.86226043701172E-05
-6.20576248168945E-05
-5.48485069274902E-05
-4.70397262573242E-05
-3.86131248474121E-05
-2.98602924346924E-05
-2.12177734375E-05
-1.30227155685425E-05
-5.70141744613647E-06
3.49006414413452E-07
5.02775192260742E-06
8.34433364868164E-06
1.03615684509277E-05
1.12674827575684E-05
1.12344665527344E-05
1.04525213241577E-05
9.1804084777832E-06
7.64074230194092E-06
6.00441265106201E-06
4.40157794952393E-06
2.90864205360413E-06
1.59802508354187E-06
5.68612515926361E-07
-1.00279599428177E-07
-3.57576280832291E-07
-1.69149279594421E-07
4.65650826692581E-07
1.53958833217621E-06
3.04490923881531E-06
4.95169973373413E-06
7.21535444259644E-06
9.7667293548584E-06
1.25184288024902E-05
1.53891105651855E-05
1.83009567260742E-05
2.11941013336182E-05
2.40284309387207E-05
2.67638702392578E-05
2.93611011505127E-05
3.17947731018066E-05
3.40510177612305E-05
3.61242218017578E-05
3.80222930908203E-05
3.97518539428711E-05
4.13176040649414E-05
4.27333641052246E-05
4.40183410644531E-05
4.51998329162598E-05
4.63107299804687E-05
4.7384708404541E-05
4.84556770324707E-05
4.95495071411133E-05
5.06839370727539E-05
5.1872673034668E-05
5.31247711181641E-05
5.44441719055176E-05
5.58313064575195E-05
5.72820930480957E-05
5.8787467956543E-05
6.03407363891602E-05
6.19370651245117E-05
6.3570442199707E-05
6.52347640991211E-05
6.69214477539063E-05
6.86197814941406E-05
7.03179550170898E-05
7.20032501220703E-05
7.36634368896484E-05
7.52869873046875E-05
7.68629379272461E-05
7.83811569213867E-05
7.98321914672851E-05
8.12068328857422E-05
8.24971313476562E-05
8.36962890625E-05
8.4796501159668E-05
8.57892303466797E-05
8.66656951904297E-05
8.74166412353516E-05
8.80335922241211E-05
8.8509162902832E-05
8.88362808227539E-05
8.90083465576172E-05
8.90200958251953E-05
8.88674468994141E-05
8.85476684570312E-05
8.80594482421875E-05
8.74022216796875E-05
8.65762100219727E-05
8.55825347900391E-05
8.44231872558594E-05
8.31009979248047E-05
8.16197509765625E-05
7.99840774536133E-05
7.81993637084961E-05
7.62718124389648E-05
7.42083587646484E-05
7.20169143676758E-05
6.97062911987305E-05
6.72859878540039E-05
6.47661590576172E-05
6.2157470703125E-05
5.94709663391113E-05
5.67182159423828E-05
5.3911319732666E-05
5.10625839233398E-05
4.81845207214355E-05
4.52897758483887E-05
4.23910179138184E-05
3.95008926391602E-05
3.66319046020508E-05
3.37962074279785E-05
3.10054359436035E-05
2.8270679473877E-05
2.56023769378662E-05
2.30100936889648E-05
2.05025177001953E-05
1.80873947143555E-05
1.57715301513672E-05
1.3560827255249E-05
1.14603271484375E-05
9.47419357299805E-06
7.60571527481079E-06
5.85737228393555E-06
4.23083591461182E-06
2.72700428962708E-06
1.3460248708725E-06
8.72769057750702E-08
-1.05061078071594E-06
-2.06976628303528E-06
-2.97305393218994E-06
-3.76400470733643E-06
-4.44677972793579E-06
-5.02616310119629E-06
-5.50752782821655E-06
-5.89682483673096E-06
-6.20053815841675E-06
-6.42556190490723E-06
-6.57911062240601E-06
-6.66864681243896E-06
-6.70178699493408E-06
-6.68626880645752E-06
-6.62981367111206E-06
-6.53995609283447E-06
-6.42391729354858E-06
-6.2885332107544E-06
-6.14019680023193E-06
-5.98483228683472E-06
-5.82782793045044E-06
-5.67384624481201E-06
-5.52682638168335E-06
-5.39004611968994E-06
-5.26616334915161E-06
-5.15727233886719E-06
-5.06485986709595E-06
-4.98974990844727E-06
-4.93211221694946E-06
-4.8915901184082E-06
-4.8673906326294E-06
-4.8582820892334E-06
-4.86260938644409E-06
-4.87830448150635E-06
-4.90290307998657E-06
-4.93362236022949E-06
-4.96748781204224E-06
-5.00132942199707E-06
-5.03173160552979E-06
-5.05501747131348E-06
-5.06724643707275E-06
-5.06432247161865E-06
-5.04214954376221E-06
-4.99680137634277E-06
-4.92449188232422E-06
-4.82143545150757E-06
-4.684006690979E-06
-4.50894737243652E-06
-4.29355525970459E-06
-4.03576326370239E-06
-3.73408079147339E-06
-3.38745880126953E-06
-2.99535918235779E-06
-2.55818796157837E-06
-2.07724142074585E-06
-1.55451464653015E-06
-9.92563307285309E-07
-3.94392371177673E-07
2.36421436071396E-07
8.95653128623962E-07
1.57826972007751E-06
2.27872943878174E-06
2.9912006855011E-06
3.70935463905334E-06
4.42662334442139E-06
5.13659763336182E-06
5.8329930305481E-06
6.50989723205566E-06
7.16220664978027E-06
7.78513050079346E-06
8.37396144866943E-06
8.92445945739746E-06
9.43237686157227E-06
9.89324378967285E-06
1.03026008605957E-05
1.06553745269775E-05
1.09460735321045E-05
1.11696643829346E-05
1.13220720291138E-05
1.14008522033691E-05
1.14047937393188E-05
1.1332633972168E-05
1.11832208633423E-05
1.09559497833252E-05
1.06504125595093E-05
1.02680034637451E-05
9.81140327453613E-06
9.28114032745361E-06
8.67722988128662E-06
8.00235939025879E-06
7.26200103759766E-06
6.46851825714111E-06
5.6400032043457E-06
4.79089260101318E-06
3.9311158657074E-06
3.06856322288513E-06
2.21003246307373E-06
1.36359024047852E-06
5.36743819713593E-07
-2.71752893924713E-07
-1.07107269763947E-06
-1.87097120285034E-06
-2.68059229850769E-06
-3.50033617019653E-06
-4.32674598693848E-06
-5.1664834022522E-06
-6.03257083892822E-06
-6.95019149780273E-06
-7.95168495178223E-06
-9.05184173583984E-06
-1.02474794387817E-05
-1.15298509597778E-05
-1.28917264938354E-05
-1.43261919021606E-05
-1.58276748657227E-05
-1.73709373474121E-05
-1.88986892700195E-05
-2.03541584014893E-05
-2.16863079071045E-05
-2.28486709594727E-05
-2.37926158905029E-05
-2.44610939025879E-05
-2.47612495422363E-05
-2.45537261962891E-05
-2.37741527557373E-05
-2.24508247375488E-05
-2.07032623291016E-05
-1.87961025238037E-05
-1.69786796569824E-05
-1.53939390182495E-05
-1.42492771148682E-05
-1.38074989318848E-05
-1.4088960647583E-05
-1.4954044342041E-05
-1.60166206359863E-05
-1.63896217346191E-05
-1.53162612915039E-05
-1.23667259216309E-05
-7.06140232086182E-06
7.31969475746155E-07
1.05033149719238E-05
2.16300601959229E-05
3.28913612365723E-05
4.19893646240234E-05
4.68313293457031E-05
4.55141448974609E-05
3.66911582946777E-05
2.07724571228027E-05
-1.31766700744629E-06
-2.94792308807373E-05
-6.51450805664062E-05
-0.00010994587707519500
-0.00016309274291992200
-0.00021945155334472700
-0.00026868951416015600
-0.00030068835449218700
-0.00031093377685546900
-0.00030141525268554700
-0.00028062670898437500
-0.00025777929687500000
-0.0002376428985595700
-0.00022099888610839800
-0.00020564045715332000
-0.00018953660583496100
-0.00017270008850097700
-0.0001563946838378910
-0.00014226800537109400
-0.00013076669311523400
-0.00012137479400634800
-0.00011319863891601600
-0.00010500988769531200
-9.62509689331055E-05
-8.68449783325195E-05
-7.6758659362793E-05
-6.62693023681641E-05
-5.57699775695801E-05
-4.55918350219727E-05
-3.61537017822266E-05
-2.78795642852783E-05
-2.09348945617676E-05
-1.53512535095215E-05
-1.11183338165283E-05
-8.1131591796875E-06
-6.21061897277832E-06
-5.28436708450317E-06
-5.13472509384155E-06
-5.56149959564209E-06
-6.4367790222168E-06
-7.66133117675781E-06
-9.13801765441895E-06
-1.07664289474487E-05
-1.23924999237061E-05
-1.38553905487061E-05
-1.50533046722412E-05
-1.59192352294922E-05
-1.64128551483154E-05
-1.65116310119629E-05
-1.61880664825439E-05
-1.54267082214355E-05
-1.42461547851562E-05
-1.26887588500977E-05
-1.08060054779053E-05
-8.64590549468994E-06
-6.23747634887695E-06
-3.60978364944458E-06
-8.09536457061767E-07
2.09840035438538E-06
5.02881717681885E-06
7.90678787231445E-06
1.06870975494385E-05
1.33410758972168E-05
1.58500299453735E-05
1.82003841400146E-05
2.03809242248535E-05
2.23926391601562E-05
2.42557506561279E-05
2.59965744018555E-05
2.76376857757568E-05
2.91961326599121E-05
3.0681079864502E-05
3.21049423217773E-05
3.3487606048584E-05
3.48542976379395E-05
3.62341842651367E-05
3.76478576660156E-05
3.91052589416504E-05
4.06117248535156E-05
4.21690101623535E-05
4.37763366699219E-05
4.54303894042969E-05
4.712109375E-05
4.88308792114258E-05
5.05428810119629E-05
5.22432823181152E-05
5.39204559326172E-05
5.5565055847168E-05
5.71657562255859E-05
5.87091941833496E-05
6.01820640563965E-05
6.15717124938965E-05
6.28676567077637E-05
6.40608062744141E-05
6.51420211791992E-05
6.61026611328125E-05
6.69352035522461E-05
6.76330795288086E-05
6.81914520263672E-05
6.86069793701172E-05
6.88755416870117E-05
6.89928207397461E-05
6.89548568725586E-05
6.87577514648438E-05
6.83985366821289E-05
6.78752746582031E-05
6.71864776611328E-05
6.63313522338867E-05
6.53107070922852E-05
6.4126708984375E-05
6.2782958984375E-05
6.12845268249512E-05
5.96374397277832E-05
5.78488273620605E-05
5.59270324707031E-05
5.38813629150391E-05
5.1721923828125E-05
4.9459358215332E-05
4.71046905517578E-05
4.46694030761719E-05
4.2165355682373E-05
3.96044883728027E-05
3.69987030029297E-05
3.43596572875977E-05
3.16987228393555E-05
2.9027156829834E-05
2.63561363220215E-05
2.36965351104736E-05
2.10589237213135E-05
1.84535350799561E-05
1.58902425765991E-05
1.33786563873291E-05
1.09281768798828E-05
8.54783916473389E-06
6.24621343612671E-06
4.03138971328735E-06
1.91094326972961E-06
-1.08092784881592E-07
-2.01926398277283E-06
-3.81683421134949E-06
-5.4960560798645E-06
-7.0532603263855E-06
-8.48587322235107E-06
-9.79246044158936E-06
-1.09727039337158E-05
-1.20274276733398E-05
-1.29586143493652E-05
-1.37693271636963E-05
-1.44635314941406E-05
-1.5045952796936E-05
-1.5521954536438E-05
-1.5897439956665E-05
-1.61787815093994E-05
-1.63727111816406E-05
-1.64861927032471E-05
-1.65263366699219E-05
-1.65003318786621E-05
-1.64153861999512E-05
-1.62787113189697E-05
-1.60974903106689E-05
-1.58788433074951E-05
-1.56297750473022E-05
-1.5357180595398E-05
-1.50678176879883E-05
-1.47683277130127E-05
-1.4465274810791E-05
-1.41651582717896E-05
-1.3874363899231E-05
-1.359912109375E-05
-1.334543800354E-05
-1.3119044303894E-05
-1.29253253936768E-05
-1.27692222595215E-05
-1.26551151275635E-05
-1.25866727828979E-05
-1.25667266845703E-05
-1.25972480773926E-05
-1.26793460845947E-05
-1.28132410049438E-05
-1.29983005523682E-05
-1.32330303192139E-05
-1.35150785446167E-05
-1.38413639068604E-05
-1.42082424163818E-05
-1.46115970611572E-05
-1.50468482971191E-05
-1.55090255737305E-05
-1.59927597045898E-05
-1.64923629760742E-05
-1.70020408630371E-05
-1.7515998840332E-05
-1.80284004211426E-05
-1.85333213806152E-05
-1.90248508453369E-05
-1.94971656799316E-05
-1.99446792602539E-05
-2.03621444702148E-05
-2.07444534301758E-05
-2.10864448547363E-05
-2.13829326629639E-05
-2.16288681030273E-05
-2.18194637298584E-05
-2.19501953125E-05
-2.20168342590332E-05
-2.20153312683105E-05
-2.19419784545898E-05
-2.17937622070312E-05
-2.15686092376709E-05
-2.12653064727783E-05
-2.08834800720215E-05
-2.04235916137695E-05
-1.98868179321289E-05
-1.92752723693848E-05
-1.8592098236084E-05
-1.78411636352539E-05
-1.70269737243652E-05
-1.61546058654785E-05
-1.52298822402954E-05
-1.42594718933105E-05
-1.32509880065918E-05
-1.22127256393433E-05
-1.1153190612793E-05
-1.00809011459351E-05
-9.0043420791626E-06
-7.93222236633301E-06
-6.87270164489746E-06
-5.83281564712524E-06
-4.81868743896484E-06
-3.83532571792603E-06
-2.88787937164307E-06
-1.98271417617798E-06
-1.12612318992615E-06
-3.23004841804504E-07
4.2261666059494E-07
1.10728526115417E-06
1.72792959213257E-06
2.28037905693054E-06
2.76118111610413E-06
3.16979289054871E-06
3.50653576850891E-06
3.77150297164917E-06
3.96304941177368E-06
4.07615756988525E-06
4.10544872283936E-06
4.04795551300049E-06
3.90349292755127E-06
3.67469453811645E-06
3.36363434791565E-06
2.96910667419434E-06
2.49070310592651E-06
1.93170237541199E-06
1.29792737960815E-06
5.98202109336853E-07
-1.59442603588104E-07
-9.72129821777344E-07
-1.83684539794922E-06
-2.74530506134033E-06
-3.68466567993164E-06
-4.64164686203003E-06
-5.60529279708862E-06
-6.56824970245361E-06
-7.54144811630249E-06
-8.54905986785889E-06
-9.60098075866699E-06
-1.07045278549194E-05
-1.18561515808105E-05
-1.3009614944458E-05
-1.41309947967529E-05
-1.52171688079834E-05
-1.62104625701904E-05
-1.70346736907959E-05
-1.76729316711426E-05
-1.80881385803223E-05
-1.82908992767334E-05
-1.84640789031982E-05
-1.87151470184326E-05
-1.900559425354E-05
-1.93892097473145E-05
-1.98982620239258E-05
-2.02525978088379E-05
-2.01765060424805E-05
-1.96049270629883E-05
-1.79895858764648E-05
-1.56408338546753E-05
-1.43418064117432E-05
-1.42379989624023E-05
-1.49220237731934E-05
-1.54335803985596E-05
-1.08880443572998E-05
1.99646472930908E-07
1.36224746704102E-05
2.48037853240967E-05
2.30967292785645E-05
4.20563697814941E-07
-3.87892150878906E-05
-8.70659332275391E-05
-0.0001284807891845700
-0.00014396200561523400
-0.00012743078613281200
-7.87060928344727E-05
-7.21645736694336E-06
6.81076736450195E-05
0.00013340960693359400
0.00017777920532226600
0.0001942569885253910
0.0001831588134765630
0.00014524653625488300
8.23947830200195E-05
1.9498405456543E-06
-8.63153686523437E-05
-0.00017002662658691400
-0.00023484722900390600
-0.00027449734497070300
-0.00029020809936523400
-0.00028826312255859400
-0.00028074334716796900
-0.00027439346313476600
-0.00026964459228515600
-0.00026422955322265600
-0.00025217994689941400
-0.0002312445373535160
-0.00020377035522460900
-0.00017265943908691400
-0.00014120065307617200
-0.00011120924377441400
-8.27164154052734E-05
-5.62260665893555E-05
-3.32201309204102E-05
-1.45180397033691E-05
-2.8684139251709E-08
1.02591028213501E-05
1.63910179138184E-05
1.84334506988525E-05
1.57339859008789E-05
9.30612468719482E-06
2.48091268539429E-06
-3.74445152282715E-06
-9.70755767822266E-06
-1.67266998291016E-05
-2.86904335021973E-05
-4.43910217285156E-05
-5.82291412353516E-05
-6.53265151977539E-05
-5.99578247070312E-05
-4.28324928283691E-05
-2.0989013671875E-05
-2.94142723083496E-07
1.35141010284424E-05
1.92609748840332E-05
2.06024913787842E-05
1.98880081176758E-05
1.92249622344971E-05
1.93066787719727E-05
1.88927001953125E-05
1.8001106262207E-05
1.70290679931641E-05
1.61917743682861E-05
1.61305313110352E-05
1.69710083007813E-05
1.84289207458496E-05
2.0405200958252E-05
2.26898307800293E-05
2.49677333831787E-05
2.71133270263672E-05
2.90576515197754E-05
3.07451286315918E-05
3.2235538482666E-05
3.3581485748291E-05
3.47817115783691E-05
3.58660125732422E-05
3.68742294311523E-05
3.7820182800293E-05
3.87226066589355E-05
3.95904731750488E-05
4.04175338745117E-05
4.12183837890625E-05
4.20133285522461E-05
4.28180046081543E-05
4.36522178649902E-05
4.45269432067871E-05
4.54454116821289E-05
4.64114151000977E-05
4.74231872558594E-05
4.84754791259766E-05
4.95678405761719E-05
5.0701171875E-05
5.1876594543457E-05
5.30959892272949E-05
5.43571891784668E-05
5.56553916931152E-05
5.6984619140625E-05
5.83356170654297E-05
5.96969757080078E-05
6.10551910400391E-05
6.23947906494141E-05
6.37018432617187E-05
6.4965202331543E-05
6.61753768920898E-05
6.7324348449707E-05
6.84044952392578E-05
6.94071502685547E-05
7.03234405517578E-05
7.11448516845703E-05
7.18628311157227E-05
7.24688186645508E-05
7.29542846679687E-05
7.33109283447266E-05
7.35313110351562E-05
7.36095657348633E-05
7.3541259765625E-05
7.33229675292969E-05
7.29519424438477E-05
7.2426155090332E-05
7.17443923950195E-05
7.0906379699707E-05
6.99128494262695E-05
6.8765266418457E-05
6.74658203125E-05
6.6017707824707E-05
6.44252395629883E-05
6.26938591003418E-05
6.08301239013672E-05
5.88414573669434E-05
5.67360687255859E-05
5.45231781005859E-05
5.22129135131836E-05
4.9816047668457E-05
4.73439064025879E-05
4.48079833984375E-05
4.22198257446289E-05
3.95912094116211E-05
3.69340324401855E-05
3.4260124206543E-05
3.15812339782715E-05
2.89087924957275E-05
2.62538547515869E-05
2.36272754669189E-05
2.10396270751953E-05
1.8501033782959E-05
1.60211448669434E-05
1.36088609695435E-05
1.12723121643066E-05
9.01901531219482E-06
6.85582733154297E-06
4.78891372680664E-06
2.82375502586365E-06
9.65034484863281E-07
-7.8335839509964E-07
-2.41816711425781E-06
-3.93680143356323E-06
-5.33741617202759E-06
-6.61890697479248E-06
-7.78098344802856E-06
-8.82415771484375E-06
-9.74963855743408E-06
-1.05593070983887E-05
-1.12557506561279E-05
-1.1842230796814E-05
-1.23226480484009E-05
-1.27014713287354E-05
-1.2983624458313E-05
-1.3174430847168E-05
-1.32796058654785E-05
-1.33051986694336E-05
-1.32575435638428E-05
-1.3143180847168E-05
-1.29687213897705E-05
-1.27408103942871E-05
-1.24661130905151E-05
-1.21512765884399E-05
-1.18028888702393E-05
-1.14274206161499E-05
-1.10311107635498E-05
-1.06199398040771E-05
-1.01996755599976E-05
-9.7758617401123E-06
-9.35377216339111E-06
-8.93838119506836E-06
-8.53428554534912E-06
-8.14567852020264E-06
-7.77645826339722E-06
-7.43023729324341E-06
-7.11031341552734E-06
-6.81963396072388E-06
-6.5607442855835E-06
-6.33581256866455E-06
-6.14668703079224E-06
-5.99491500854492E-06
-5.88170766830444E-06
-5.80787181854248E-06
-5.77375221252441E-06
-5.7792820930481E-06
-5.82405376434326E-06
-5.90732002258301E-06
-6.02799320220947E-06
-6.18461513519287E-06
-6.37529945373535E-06
-6.59781742095947E-06
-6.84974575042725E-06
-7.12847566604614E-06
-7.43114805221558E-06
-7.75464630126953E-06
-8.09554862976074E-06
-8.45017051696777E-06
-8.81479263305664E-06
-9.18572616577148E-06
-9.55921077728271E-06
-9.93137264251709E-06
-1.029833984375E-05
-1.06563243865967E-05
-1.10018310546875E-05
-1.13317756652832E-05
-1.16432037353516E-05
-1.19331560134888E-05
-1.21987228393555E-05
-1.2437198638916E-05
-1.26461963653564E-05
-1.28236150741577E-05
-1.296750831604E-05
-1.3075930595398E-05
-1.31470756530762E-05
-1.31794967651367E-05
-1.31722946166992E-05
-1.31250190734863E-05
-1.30374708175659E-05
-1.29097137451172E-05
-1.27420339584351E-05
-1.25351095199585E-05
-1.22902050018311E-05
-1.20089893341064E-05
-1.16932315826416E-05
-1.13448085784912E-05
-1.09659013748169E-05
-1.05591430664062E-05
-1.01279106140137E-05
-9.67626571655273E-06
-9.20853233337402E-06
-8.72912502288818E-06
-8.24263954162598E-06
-7.75407600402832E-06
-7.26823854446411E-06
-6.78930854797363E-06
-6.32057666778564E-06
-5.86408138275146E-06
-5.42152786254883E-06
-4.99521827697754E-06
-4.58750486373901E-06
-4.2001519203186E-06
-3.83546161651611E-06
-3.49636220932007E-06
-3.18642473220825E-06
-2.9108452796936E-06
-2.67385864257813E-06
-2.47723984718323E-06
-2.32206797599792E-06
-2.2089478969574E-06
-2.13864350318909E-06
-2.11344623565674E-06
-2.13525795936584E-06
-2.20446395874023E-06
-2.32203912734985E-06
-2.48846554756165E-06
-2.7051465511322E-06
-2.97572636604309E-06
-3.2982325553894E-06
-3.66412878036499E-06
-4.06051301956177E-06
-4.46842002868652E-06
-4.87334728240967E-06
-5.2698483467102E-06
-5.65022754669189E-06
-6.00527334213257E-06
-6.32922887802124E-06
-6.615309715271E-06
-6.86809301376343E-06
-7.10687828063965E-06
-7.34365177154541E-06
-7.58705377578735E-06
-7.84408760070801E-06
-8.11356544494629E-06
-8.41363525390625E-06
-8.78232574462891E-06
-9.24495887756348E-06
-9.81960487365723E-06
-1.05123825073242E-05
-1.13055191040039E-05
-1.22037754058838E-05
-1.32291316986084E-05
-1.43717002868652E-05
-1.56121397018433E-05
-1.69440650939941E-05
-1.83652782440186E-05
-1.98727607727051E-05
-2.14305038452148E-05
-2.2939847946167E-05
-2.42788314819336E-05
-2.53262634277344E-05
-2.59744148254395E-05
-2.60459938049316E-05
-2.5216724395752E-05
-2.34892044067383E-05
-2.12731456756592E-05
-1.88902893066406E-05
-1.68287487030029E-05
-1.48941259384155E-05
-1.17953853607178E-05
-7.87956237792969E-06
-4.49536752700806E-06
-3.14408874511719E-06
-6.80057334899902E-06
-1.42353649139404E-05
-2.08581638336182E-05
-2.32187900543213E-05
-1.60523948669434E-05
1.33463478088379E-06
2.52025947570801E-05
5.31390686035156E-05
7.92013778686523E-05
9.76245727539062E-05
0.00010441764831543000
9.49995880126953E-05
6.87786331176758E-05
2.83000373840332E-05
-2.35234069824219E-05
-8.36293029785156E-05
-0.00014821633911132800
-0.00021195605468750000
-0.00026634472656250000
-0.00030160073852539100
-0.00031333001708984400
-0.00030398654174804700
-0.00028186334228515600
-0.00025682675170898400
-0.00023398629760742200
-0.00021317710876464800
-0.00019136543273925800
-0.00016647087097168000
-0.00013890692138671900
-0.00011108609771728500
-8.62275848388672E-05
-6.59251174926758E-05
-5.06594314575195E-05
-4.04126205444336E-05
-3.42790946960449E-05
-3.13655548095703E-05
-3.1063196182251E-05
-3.24162406921387E-05
-3.44249382019043E-05
-3.64299163818359E-05
-3.76880264282227E-05
-3.76988945007324E-05
-3.64374694824219E-05
-3.40360450744629E-05
-3.07291088104248E-05
-2.69888877868652E-05
-2.33805122375488E-05
-2.02572498321533E-05
-1.78844165802002E-05
-1.63571491241455E-05
-1.55769529342651E-05
-1.54295177459717E-05
-1.57694759368896E-05
-1.63503227233887E-05
-1.68416213989258E-05
-1.70142364501953E-05
-1.67350330352783E-05
-1.59568128585815E-05
-1.47363996505737E-05
-1.31187648773193E-05
-1.11284618377686E-05
-8.81745910644531E-06
-6.27432632446289E-06
-3.58202195167542E-06
-8.25345039367676E-07
1.91343188285828E-06
4.60932159423828E-06
7.24424505233765E-06
9.78836250305176E-06
1.22185878753662E-05
1.44971418380737E-05
1.65936431884766E-05
1.85068359375E-05
2.02489948272705E-05
2.1827615737915E-05
2.32491836547852E-05
2.45174713134766E-05
2.5636474609375E-05
2.66309700012207E-05
2.75326995849609E-05
2.83734359741211E-05
2.91891174316406E-05
3.00026473999023E-05
3.08298950195312E-05
3.16888637542725E-05
3.25947723388672E-05
3.35609664916992E-05
3.45973815917969E-05
3.57047500610352E-05
3.687744140625E-05
3.8114086151123E-05
3.94157104492188E-05
4.07835006713867E-05
4.22189712524414E-05
4.37177467346191E-05
4.52727241516113E-05
4.68777465820312E-05
4.85259056091309E-05
5.02108192443848E-05
5.19264526367187E-05
5.36655502319336E-05
5.54210433959961E-05
5.71876411437988E-05
5.89606552124023E-05
6.07361068725586E-05
6.25108184814453E-05
6.42799377441406E-05
6.60374145507813E-05
6.7776969909668E-05
6.94915542602539E-05
7.11738128662109E-05
7.28164443969726E-05
7.4411636352539E-05
7.59513244628906E-05
7.74280853271484E-05
7.88349380493164E-05
8.01651458740234E-05
8.14124145507812E-05
8.25705947875977E-05
8.36337585449219E-05
8.45965270996094E-05
8.54540710449219E-05
8.62019348144531E-05
8.68362503051758E-05
8.73539047241211E-05
8.77525329589844E-05
8.80306625366211E-05
8.81875534057617E-05
8.82229766845703E-05
8.81373138427734E-05
8.79316329956055E-05
8.76075439453125E-05
8.7167121887207E-05
8.66128463745117E-05
8.59473571777344E-05
8.51736755371094E-05
8.42952423095703E-05
8.33159713745117E-05
8.22402038574219E-05
8.10727081298828E-05
7.98185119628906E-05
7.84829940795898E-05
7.70719833374023E-05
7.55916519165039E-05
7.40485229492188E-05
7.24493865966797E-05
7.08011245727539E-05
6.91107025146484E-05
6.73852233886719E-05
6.56318664550781E-05
6.38579406738281E-05
6.2070686340332E-05
6.0277156829834E-05
5.84841346740723E-05
5.6698169708252E-05
5.49254837036133E-05
5.31719512939453E-05
5.14430046081543E-05
4.97435493469238E-05
4.80779914855957E-05
4.64503021240234E-05
4.48640403747559E-05
4.33224029541016E-05
4.18281936645508E-05
4.0383846282959E-05
3.89914169311523E-05
3.76526718139648E-05
3.63690490722656E-05
3.51417007446289E-05
3.39714698791504E-05
3.28587760925293E-05
3.18037204742432E-05
3.08060874938965E-05
2.98653316497803E-05
2.89806022644043E-05
2.81506690979004E-05
2.73738632202148E-05
2.66481342315674E-05
2.59710597991943E-05
2.53398399353027E-05
2.47513542175293E-05
2.42021312713623E-05
2.36883239746094E-05
2.32058887481689E-05
2.27506885528564E-05
2.23185234069824E-05
2.1905252456665E-05
2.15067749023437E-05
2.11189918518066E-05
2.07379264831543E-05
2.03598365783691E-05
1.99811592102051E-05
1.95985774993896E-05
1.92089958190918E-05
1.8809455871582E-05
1.83972759246826E-05
1.7970085144043E-05
1.7525749206543E-05
1.70624008178711E-05
1.65783233642578E-05
1.60718688964844E-05
1.55416049957275E-05
1.49863386154175E-05
1.44049863815308E-05
1.3796706199646E-05
1.31608238220215E-05
1.24967746734619E-05
1.18044013977051E-05
1.10840301513672E-05
1.03362894058228E-05
9.56222534179687E-06
8.76334571838379E-06
7.94140338897705E-06
7.09864139556885E-06
6.2378888130188E-06
5.36212587356567E-06
4.47445869445801E-06
3.57822561264038E-06
2.67676472663879E-06
1.77363312244415E-06
8.72875571250915E-07
-2.13667452335358E-08
-9.04959797859192E-07
-1.77366018295288E-06
-2.62331223487854E-06
-3.44977378845215E-06
-4.24881792068481E-06
-5.01660585403442E-06
-5.74979972839355E-06
-6.44529628753662E-06
-7.10030651092529E-06
-7.71201992034912E-06
-8.27742767333984E-06
-8.79382133483887E-06
-9.25872611999512E-06
-9.66953468322754E-06
-1.00237865447998E-05
-1.03190488815308E-05
-1.05527772903442E-05
-1.07231578826904E-05
-1.0829252243042E-05
-1.08702983856201E-05
-1.08459777832031E-05
-1.07567119598389E-05
-1.06031017303467E-05
-1.03865928649902E-05
-1.01098880767822E-05
-9.77541160583496E-06
-9.38499450683594E-06
-8.94088172912598E-06
-8.44524955749512E-06
-7.90036964416504E-06
-7.31003093719482E-06
-6.67797946929932E-06
-6.00700092315674E-06
-5.30104970932007E-06
-4.56526231765747E-06
-3.80525779724121E-06
-3.02822470664978E-06
-2.24088144302368E-06
-1.44717693328857E-06
-6.50859951972961E-07
1.44378453493118E-07
9.35492277145386E-07
1.71789240837097E-06
2.48839807510376E-06
3.24657535552978E-06
3.98899459838867E-06
4.70990610122681E-06
5.4012770652771E-06
6.04928398132324E-06
6.64356422424316E-06
7.18246078491211E-06
7.66523361206055E-06
8.09540367126465E-06
8.48313617706299E-06
8.8342227935791E-06
9.15801429748535E-06
9.47210502624512E-06
9.78529453277588E-06
1.01001996994019E-05
1.0416332244873E-05
1.07200345993042E-05
1.10004358291626E-05
1.12610292434692E-05
1.15083141326904E-05
1.175803565979E-05
1.2027379989624E-05
1.23143825531006E-05
1.26123657226562E-05
1.29090585708618E-05
1.31671657562256E-05
1.33448314666748E-05
1.33924961090088E-05
1.32394666671753E-05
1.28347854614258E-05
1.21529207229614E-05
1.11752834320068E-05
9.91291236877441E-06
8.39408111572266E-06
6.63099813461304E-06
4.63818502426147E-06
2.42706894874573E-06
-1.2502908706665E-08
-2.67686653137207E-06
-5.5363712310791E-06
-8.5387372970581E-06
-1.15826282501221E-05
-1.45319271087646E-05
-1.72356719970703E-05
-1.95350646972656E-05
-2.12560043334961E-05
-2.22127227783203E-05
-2.23050651550293E-05
-2.15411682128906E-05
-2.00486965179443E-05
-1.81001758575439E-05
-1.59628114700317E-05
-1.37815294265747E-05
-1.17297010421753E-05
-1.0026406288147E-05
-8.63154315948486E-06
-7.35415697097778E-06
-5.7803258895874E-06
-3.03383922576904E-06
1.60409808158875E-06
8.49541282653809E-06
1.8032678604126E-05
3.03220252990723E-05
4.47442398071289E-05
6.03644485473633E-05
7.56693878173828E-05
8.82080459594727E-05
9.58441619873047E-05
9.68102645874023E-05
8.92149047851563E-05
7.20738525390625E-05
4.56395263671875E-05
1.0782172203064E-05
-3.05250720977783E-05
-7.50509948730469E-05
-0.00011980001831054700
-0.00016175579833984400
-0.00019750085449218700
-0.00022475279235839800
-0.0002424209747314450
-0.00025004806518554700
-0.00024839837646484400
-0.0002392725830078130
-0.00022438487243652300
-0.00020581745910644500
-0.00018616035461425800
-0.00016715130615234400
-0.00014985960388183600
-0.00013503135681152300
-0.00012260635375976600
-0.00011208878326416000
-0.00010306448364257800
-9.47957305908203E-05
-8.63111572265625E-05
-7.71638336181641E-05
-6.7189468383789E-05
-5.63652572631836E-05
-4.50369529724121E-05
-3.35893135070801E-05
-2.23451061248779E-05
-1.17881135940552E-05
-2.40247011184692E-06
5.58085441589355E-06
1.20632095336914E-05
1.70649833679199E-05
2.07333316802979E-05
2.31726932525635E-05
2.44897518157959E-05
2.48649101257324E-05
2.44927997589111E-05
2.35522956848145E-05
2.21923294067383E-05
2.05132007598877E-05
1.86148204803467E-05
1.66337127685547E-05
1.47123184204102E-05
1.29905138015747E-05
1.1567177772522E-05
1.04869976043701E-05
9.78365802764893E-06
9.4788179397583E-06
9.58173179626465E-06
1.00957813262939E-05
1.09952239990234E-05
1.22272262573242E-05
1.37421493530273E-05
1.54934501647949E-05
1.74354000091553E-05
1.95314083099365E-05
2.17257347106934E-05
2.39423217773437E-05
2.61187362670898E-05
2.82008399963379E-05
3.01523284912109E-05
3.19619369506836E-05
3.36185302734375E-05
3.51123352050781E-05
3.6447021484375E-05
3.76349563598633E-05
3.86958541870117E-05
3.96585884094238E-05
4.05448379516602E-05
4.13677825927734E-05
4.21451263427734E-05
4.28941268920898E-05
4.3637580871582E-05
4.4405704498291E-05
4.52184982299805E-05
4.60874404907227E-05
4.70203628540039E-05
4.80184516906738E-05
4.90815505981445E-05
5.02095031738281E-05
5.1394603729248E-05
5.26227722167969E-05
5.3880973815918E-05
5.51556434631348E-05
5.64351921081543E-05
5.77115631103516E-05
5.89735794067383E-05
6.02080612182617E-05
6.14019927978516E-05
6.25415306091309E-05
6.36148834228516E-05
6.46127014160156E-05
6.55251388549805E-05
6.63424453735352E-05
6.70562591552734E-05
6.76589050292969E-05
6.81445083618164E-05
6.85092315673828E-05
6.87484664916992E-05
6.88572387695312E-05
6.88314666748047E-05
6.86674346923828E-05
6.83624725341797E-05
6.79152755737305E-05
6.73247909545898E-05
6.6590461730957E-05
6.57132110595703E-05
6.4695198059082E-05
6.35395240783691E-05
6.22504119873047E-05
6.08326034545898E-05
5.92912673950195E-05
5.76325302124023E-05
5.58632888793945E-05
5.39909744262695E-05
5.20236206054687E-05
4.9969596862793E-05
4.78375511169434E-05
4.56366958618164E-05
4.33766899108887E-05
4.1067310333252E-05
3.87184028625488E-05
3.63396911621094E-05
3.3940673828125E-05
3.15308799743652E-05
2.91198081970215E-05
2.67165966033936E-05
2.43300724029541E-05
2.19686317443848E-05
1.96401481628418E-05
1.73521595001221E-05
1.51117630004883E-05
1.2925329208374E-05
1.07985172271729E-05
8.73628616333008E-06
6.74283695220947E-06
4.82177066802979E-06
2.97610187530518E-06
1.20804381370544E-06
-4.80898022651672E-07
-2.08983421325684E-06
-3.61848664283752E-06
-5.06704473495483E-06
-6.43614196777344E-06
-7.72693920135498E-06
-8.94107437133789E-06
-1.00805644989014E-05
-1.11477909088135E-05
-1.21454105377197E-05
-1.307630443573E-05
-1.39436473846436E-05
-1.47508201599121E-05
-1.55013236999512E-05
-1.61987609863281E-05
-1.68467445373535E-05
-1.74488582611084E-05
-1.80087089538574E-05
-1.85298671722412E-05
-1.90158023834229E-05
-1.94698791503906E-05
-1.98952808380127E-05
-2.02949752807617E-05
-2.06717071533203E-05
-2.10279388427734E-05
-2.13658103942871E-05
-2.16871166229248E-05
-2.19932746887207E-05
-2.22853412628174E-05
-2.25640773773193E-05
-2.28299522399902E-05
-2.30832061767578E-05
-2.33239364624023E-05
-2.35520553588867E-05
-2.37673435211182E-05
-2.39695472717285E-05
-2.41583690643311E-05
-2.43334770202637E-05
-2.44945411682129E-05
-2.46411914825439E-05
-2.47730255126953E-05
-2.48897495269775E-05
-2.49911823272705E-05
-2.50772514343262E-05
-2.51480503082275E-05
-2.52037963867188E-05
-2.52448616027832E-05
-2.52717723846436E-05
-2.5285177230835E-05
-2.5285831451416E-05
-2.52745838165283E-05
-2.52523307800293E-05
-2.52200584411621E-05
-2.51788902282715E-05
-2.51300468444824E-05
-2.50749530792236E-05
-2.50152626037598E-05
-2.49527397155762E-05
-2.48892803192139E-05
-2.4827018737793E-05
-2.47681922912598E-05
-2.47150840759277E-05
-2.46700458526611E-05
-2.463525390625E-05
-2.4612621307373E-05
-2.46040496826172E-05
-2.46113185882568E-05
-2.4635856628418E-05
-2.46788196563721E-05
-2.47410621643066E-05
-2.48230285644531E-05
-2.49250259399414E-05
-2.5047176361084E-05
-2.51890068054199E-05
-2.53494968414307E-05
-2.55271091461182E-05
-2.57197780609131E-05
-2.59250793457031E-05
-2.61401786804199E-05
-2.63618316650391E-05
-2.65865364074707E-05
-2.68106231689453E-05
-2.70303936004639E-05
-2.72422389984131E-05
-2.74425029754639E-05
-2.7627368927002E-05
-2.77930641174316E-05
-2.79356651306152E-05
-2.80510292053223E-05
-2.81352252960205E-05
-2.81844348907471E-05
-2.81946105957031E-05
-2.81618137359619E-05
-2.80824241638184E-05
-2.79529762268066E-05
-2.7770679473877E-05
-2.75336227416992E-05
-2.72398281097412E-05
-2.68873596191406E-05
-2.6475305557251E-05
-2.60034427642822E-05
-2.54720611572266E-05
-2.48824119567871E-05
-2.42354431152344E-05
-2.35317459106445E-05
-2.27734546661377E-05
-2.19641799926758E-05
-2.11079750061035E-05
-2.02094497680664E-05
-1.92734107971191E-05
-1.83044986724854E-05
-1.73089237213135E-05
-1.62941360473633E-05
-1.52668647766113E-05
-1.42335252761841E-05
-1.31996049880981E-05
-1.21700649261475E-05
-1.11506662368774E-05
-1.01468772888184E-05
-9.16426849365234E-06
-8.20912837982178E-06
-7.28665828704834E-06
-6.4005856513977E-06
-5.5576696395874E-06
-4.7667932510376E-06
-4.0366153717041E-06
-3.37847447395325E-06
-2.79763102531433E-06
-2.29199814796448E-06
-1.86278998851776E-06
-1.51196765899658E-06
-1.23839044570923E-06
-1.03940641880035E-06
-9.09875869750977E-07
-8.41089725494385E-07
-8.29594492912292E-07
-8.78340244293213E-07
-9.85725045204163E-07
-1.14951992034912E-06
-1.36283826828003E-06
-1.61050367355347E-06
-1.87738537788391E-06
-2.14542007446289E-06
-2.40655446052551E-06
-2.66732883453369E-06
-2.93490481376648E-06
-3.21887397766113E-06
-3.53791809082031E-06
-3.9211859703064E-06
-4.39952325820923E-06
-5.00640630722046E-06
-5.76413917541504E-06
-6.66260147094727E-06
-7.69623184204102E-06
-8.87504196166992E-06
-1.01968212127686E-05
-1.16645374298096E-05
-1.32883529663086E-05
-1.50624523162842E-05
-1.69659748077393E-05
-1.90094547271729E-05
-2.11860866546631E-05
-2.33813591003418E-05
-2.54625854492187E-05
-2.72524490356445E-05
-2.85534915924072E-05
-2.92930641174316E-05
-2.94294357299805E-05
-2.884836769104E-05
-2.74718704223633E-05
-2.55073089599609E-05
-2.3318058013916E-05
-2.13663272857666E-05
-2.01122131347656E-05
-1.95838584899902E-05
-1.95959167480469E-05
-2.01025047302246E-05
-2.10377750396729E-05
-2.16976871490478E-05
-2.09375095367432E-05
-1.74755783081055E-05
-9.9705982208252E-06
1.14877581596375E-06
1.39796733856201E-05
2.7415678024292E-05
4.08700790405273E-05
5.52596054077148E-05
7.25512084960938E-05
9.13163604736328E-05
0.00010700545501709000
0.00011273031616210900
0.00010090262603759800
6.84774017333984E-05
1.65109958648682E-05
-4.93076477050781E-05
-0.00011948381042480500
-0.00018472491455078100
-0.00023500463867187500
-0.0002635748291015630
-0.00027001046752929700
-0.00025812347412109400
-0.00023643867492675800
-0.00021355990600585900
-0.00019360182189941400
-0.00017724385070800800
-0.00016251678466796900
-0.00014745791625976600
-0.00013212382507324200
-0.00011784807586669900
-0.00010621398925781200
-9.75521774291992E-05
-9.11436920166016E-05
-8.58515090942383E-05
-8.03213348388672E-05
-7.39990310668945E-05
-6.6873779296875E-05
-5.89290466308594E-05
-5.04054908752441E-05
-4.16379928588867E-05
-3.28907928466797E-05
-2.46045989990234E-05
-1.72781295776367E-05
-1.11202440261841E-05
-6.19633340835571E-06
-2.49184417724609E-06
1.5119394659996E-07
1.86055731773376E-06
2.73623394966125E-06
2.9669463634491E-06
2.76615118980408E-06
2.30151176452637E-06
1.72813904285431E-06
1.13603091239929E-06
5.49278736114502E-07
1.81013643741608E-08
-4.00830537080765E-07
-6.49511098861694E-07
-6.54624998569489E-07
-3.7487056851387E-07
2.01247751712799E-07
1.08259212970734E-06
2.26603150367737E-06
3.7408242225647E-06
5.49329471588135E-06
7.47645378112793E-06
9.61887836456299E-06
1.18504467010498E-05
1.40971851348877E-05
1.63115177154541E-05
1.8474365234375E-05
2.05642509460449E-05
2.25638580322266E-05
2.44570808410645E-05
2.62225608825684E-05
2.78528881072998E-05
2.93550338745117E-05
3.07321891784668E-05
3.19881896972656E-05
3.31293525695801E-05
3.41602821350098E-05
3.51003265380859E-05
3.59813690185547E-05
3.68352432250977E-05
3.76954956054688E-05
3.85853424072266E-05
3.95156593322754E-05
4.04958381652832E-05
4.15321426391602E-05
4.26267395019531E-05
4.37805709838867E-05
4.49889678955078E-05
4.62412300109863E-05
4.75300445556641E-05
4.88503646850586E-05
5.01965675354004E-05
5.15642127990723E-05
5.29447593688965E-05
5.43252944946289E-05
5.56926193237305E-05
5.70330047607422E-05
5.8333381652832E-05
5.95823211669922E-05
6.07685394287109E-05
6.18809432983398E-05
6.29102096557617E-05
6.38484725952148E-05
6.46893310546875E-05
6.54280242919922E-05
6.60590972900391E-05
6.65763854980469E-05
6.69740676879883E-05
6.72464904785156E-05
6.73888244628906E-05
6.73974761962891E-05
6.72692642211914E-05
6.70016098022461E-05
6.65934295654297E-05
6.60449066162109E-05
6.53575744628906E-05
6.45342407226562E-05
6.35785522460938E-05
6.24948196411133E-05
6.12882041931152E-05
5.99645881652832E-05
5.85305328369141E-05
5.6993221282959E-05
5.53604278564453E-05
5.36404342651367E-05
5.18420333862305E-05
4.99745330810547E-05
4.80477180480957E-05
4.60717468261719E-05
4.40570220947266E-05
4.20140953063965E-05
3.9953426361084E-05
3.78853149414062E-05
3.58197326660156E-05
3.3766242980957E-05
3.17339763641357E-05
2.97315654754639E-05
2.7767147064209E-05
2.58483009338379E-05
2.39819831848145E-05
2.21744232177734E-05
2.04311790466309E-05
1.87570648193359E-05
1.71560878753662E-05
1.56314487457275E-05
1.41853771209717E-05
1.28191356658936E-05
1.15331535339355E-05
1.03270616531372E-05
9.1997766494751E-06
8.14959716796875E-06
7.17421293258667E-06
6.27075386047363E-06
5.43594169616699E-06
4.66612720489502E-06
3.95730447769165E-06
3.30516839027405E-06
2.70509624481201E-06
2.15218472480774E-06
1.64131999015808E-06
1.16723489761353E-06
7.24576473236084E-07
3.07971656322479E-07
-8.79063084721565E-08
-4.68269228935242E-07
-8.38124215602875E-07
-1.2022020816803E-06
-1.56490850448608E-06
-1.93027091026306E-06
-2.30190920829773E-06
-2.68299198150635E-06
-3.0761833190918E-06
-3.48361110687256E-06
-3.90685415267944E-06
-4.34694194793701E-06
-4.80435705184937E-06
-5.2790584564209E-06
-5.77048206329346E-06
-6.27758121490479E-06
-6.7988862991333E-06
-7.33257246017456E-06
-7.87652921676636E-06
-8.42843341827392E-06
-8.98580837249756E-06
-9.54606246948242E-06
-1.01065559387207E-05
-1.06646480560303E-05
-1.12177257537842E-05
-1.17632255554199E-05
-1.22986402511597E-05
-1.28215093612671E-05
-1.33294334411621E-05
-1.38200950622559E-05
-1.42912836074829E-05
-1.47409181594849E-05
-1.51670703887939E-05
-1.55679874420166E-05
-1.5942135810852E-05
-1.62882652282715E-05
-1.66054420471191E-05
-1.689306640625E-05
-1.71509246826172E-05
-1.73791751861572E-05
-1.75784034729004E-05
-1.77496299743652E-05
-1.78943176269531E-05
-1.80143585205078E-05
-1.81120414733887E-05
-1.81900291442871E-05
-1.82513008117676E-05
-1.82991523742676E-05
-1.83371162414551E-05
-1.83689041137695E-05
-1.83983192443848E-05
-1.84291610717773E-05
-1.84651279449463E-05
-1.8509822845459E-05
-1.85666828155518E-05
-1.86388931274414E-05
-1.87293701171875E-05
-1.88407135009766E-05
-1.89751758575439E-05
-1.91348037719727E-05
-1.93214378356934E-05
-1.95366458892822E-05
-1.97817649841309E-05
-2.00578651428223E-05
-2.03657417297363E-05
-2.07059860229492E-05
-2.10789489746094E-05
-2.14846210479736E-05
-2.19226341247559E-05
-2.23922653198242E-05
-2.28923892974854E-05
-2.34215507507324E-05
-2.39779319763184E-05
-2.45592422485352E-05
-2.51627655029297E-05
-2.57853240966797E-05
-2.64232864379883E-05
-2.70726585388184E-05
-2.77290992736816E-05
-2.83878059387207E-05
-2.90436058044434E-05
-2.96910343170166E-05
-3.0324333190918E-05
-3.09377746582031E-05
-3.15257759094238E-05
-3.20827178955078E-05
-3.26031036376953E-05
-3.30817222595215E-05
-3.35136909484863E-05
-3.38946800231934E-05
-3.42210121154785E-05
-3.4489200592041E-05
-3.46958999633789E-05
-3.48382186889648E-05
-3.491357421875E-05
-3.49198379516602E-05
-3.48553619384766E-05
-3.47186508178711E-05
-3.45083694458008E-05
-3.42237319946289E-05
-3.38644485473633E-05
-3.34306335449219E-05
-3.29229888916016E-05
-3.23425102233887E-05
-3.16904487609863E-05
-3.09686470031738E-05
-3.01792812347412E-05
-2.93249969482422E-05
-2.84092674255371E-05
-2.74360847473145E-05
-2.64099235534668E-05
-2.5336109161377E-05
-2.42205371856689E-05
-2.30696544647217E-05
-2.18908958435059E-05
-2.06917533874512E-05
-1.94793167114258E-05
-1.82610855102539E-05
-1.70442543029785E-05
-1.58349113464355E-05
-1.46389560699463E-05
-1.3461519241333E-05
-1.23067026138306E-05
-1.11792526245117E-05
-1.00834274291992E-05
-9.02138900756836E-06
-7.99465608596802E-06
-7.00514698028564E-06
-6.05495595932007E-06
-5.14752340316772E-06
-4.28660249710083E-06
-3.47397756576538E-06
-2.71156907081604E-06
-2.00244522094727E-06
-1.35090613365173E-06
-7.6370120048523E-07
-2.4645571410656E-07
1.98802381753921E-07
5.72622179985046E-07
8.77392530441284E-07
1.11414861679077E-06
1.27938783168793E-06
1.36882376670837E-06
1.38520061969757E-06
1.33609938621521E-06
1.23272097110748E-06
1.08886575698853E-06
9.12940919399261E-07
7.13388025760651E-07
5.04980564117432E-07
3.06931227445602E-07
1.38593405485153E-07
1.17919221520424E-08
-7.51813799142838E-08
-1.41523659229279E-07
-2.11282014846802E-07
-2.99023538827896E-07
-4.09647047519684E-07
-5.35908460617065E-07
-6.74241125583649E-07
-8.41416597366333E-07
-1.0701789855957E-06
-1.39477181434631E-06
-1.83589816093445E-06
-2.39982509613037E-06
-3.07548832893372E-06
-3.89307880401611E-06
-4.93045043945312E-06
-6.19517183303833E-06
-7.58652114868164E-06
-8.86992835998535E-06
-9.74899673461914E-06
-1.00728435516357E-05
-9.88731479644775E-06
-9.23608207702637E-06
-8.05112266540527E-06
-6.32714176177978E-06
-4.25851202011108E-06
-2.46140575408936E-06
-1.78000640869141E-06
-2.6723062992096E-06
-5.09373998641968E-06
-8.71953392028809E-06
-1.32092952728271E-05
-1.8316780090332E-05
-2.34129791259766E-05
-2.69684600830078E-05
-2.71226940155029E-05
-2.23086452484131E-05
-1.25805282592773E-05
2.68203496932983E-07
1.48453922271729E-05
2.99128799438477E-05
4.66462707519531E-05
6.81488571166992E-05
9.33458099365234E-05
0.0001195575714111330
0.00014013781738281300
0.00014294912719726600
0.00012268347930908200
7.70812149047852E-05
7.12027549743652E-06
-7.45880126953125E-05
-0.00015744024658203100
-0.00023107601928710900
-0.00028217218017578100
-0.00030821453857421900
-0.00031020327758789100
-0.00029065344238281200
-0.00025877816772460900
-0.00022103393554687500
-0.00018249749755859400
-0.00015025669860839800
-0.00012797036743164100
-0.00011657782745361300
-0.00011399967956543000
-0.00011375341796875000
-0.00011017633819580100
-0.00010084678649902300
-8.67292556762695E-05
-7.17266006469727E-05
-5.84843902587891E-05
-4.75640640258789E-05
-3.83071136474609E-05
-2.91256446838379E-05
-1.95501956939697E-05
-1.01298589706421E-05
-1.34532713890076E-06
6.24773216247559E-06
1.23360376358032E-05
1.70042591094971E-05
2.02904815673828E-05
2.22356376647949E-05
2.30629100799561E-05
2.29692802429199E-05
2.21304569244385E-05
2.07768840789795E-05
1.90710754394531E-05
1.71380424499512E-05
1.51389980316162E-05
1.31939096450806E-05
1.13967800140381E-05
9.86672401428223E-06
8.68498706817627E-06
7.90249681472778E-06
7.570472240448E-06
7.70292472839355E-06
8.29448127746582E-06
9.340012550354E-06
1.08019123077393E-05
1.2626932144165E-05
1.47592697143555E-05
1.71206130981445E-05
1.96444702148438E-05
2.2272102355957E-05
2.49269886016846E-05
2.75518970489502E-05
3.01005897521973E-05
3.25209312438965E-05
3.47852973937988E-05
3.68811683654785E-05
3.87914123535156E-05
4.05137519836426E-05
4.20574836730957E-05
4.34272422790527E-05
4.4640380859375E-05
4.57226486206055E-05
4.66928215026855E-05
4.75768661499023E-05
4.84023933410645E-05
4.91942749023437E-05
4.99842796325684E-05
5.0796947479248E-05
5.16459808349609E-05
5.25429000854492E-05
5.3492561340332E-05
5.44943008422852E-05
5.55487823486328E-05
5.66519393920898E-05
5.77930526733398E-05
5.89642448425293E-05
6.01574668884277E-05
6.13628158569336E-05
6.25737228393555E-05
6.37818450927734E-05
6.49755706787109E-05
6.61435394287109E-05
6.72736511230469E-05
6.83543167114258E-05
6.93766860961914E-05
7.03330612182617E-05
7.1215705871582E-05
7.20179748535156E-05
7.27340927124023E-05
7.33594512939453E-05
7.38912887573242E-05
7.43263244628906E-05
7.46602172851563E-05
7.4888671875E-05
7.50074920654297E-05
7.50133056640625E-05
7.49038772583008E-05
7.46773376464844E-05
7.43320617675781E-05
7.38675231933594E-05
7.32845077514648E-05
7.25847702026367E-05
7.17711639404297E-05
7.0847038269043E-05
6.9816032409668E-05
6.86823501586914E-05
6.74509124755859E-05
6.61271743774414E-05
6.47171096801758E-05
6.32271957397461E-05
6.1664134979248E-05
6.0034912109375E-05
5.83470802307129E-05
5.66085815429687E-05
5.48274612426758E-05
5.30118637084961E-05
5.11696891784668E-05
4.9308536529541E-05
4.74360008239746E-05
4.55595436096191E-05
4.36863021850586E-05
4.1823112487793E-05
3.99764022827148E-05
3.81522331237793E-05
3.63564796447754E-05
3.45947227478027E-05
3.28720283508301E-05
3.11930046081543E-05
2.95616970062256E-05
2.79816093444824E-05
2.64558067321777E-05
2.49867286682129E-05
2.35761585235596E-05
2.22253150939941E-05
2.09348640441895E-05
1.97049770355225E-05
1.85354747772217E-05
1.74257659912109E-05
1.63748340606689E-05
1.5381350517273E-05
1.44436731338501E-05
1.35598564147949E-05
1.27277526855469E-05
1.19449920654297E-05
1.12089786529541E-05
1.05169620513916E-05
9.86609840393066E-06
9.25351524353027E-06
8.67640399932861E-06
8.1320629119873E-06
7.61787986755371E-06
7.13137722015381E-06
6.67023372650146E-06
6.23230457305908E-06
5.81565475463867E-06
5.41853523254394E-06
5.0393533706665E-06
4.67669105529785E-06
4.3293080329895E-06
3.99614787101746E-06
3.67635345458984E-06
3.36925315856934E-06
3.0743293762207E-06
2.79121685028076E-06
2.51968383789063E-06
2.25958967208862E-06
2.01087355613709E-06
1.77352452278137E-06
1.54753971099854E-06
1.33290529251099E-06
1.12958455085754E-06
9.37505424022675E-07
7.56571769714355E-07
5.86669147014618E-07
4.27652150392532E-07
2.79338002204895E-07
1.41497105360031E-07
1.38389468193054E-08
-1.03992715477943E-07
-2.12446123361588E-07
-3.12104940414429E-07
-4.03717905282974E-07
-4.88221108913422E-07
-5.6675124168396E-07
-6.406369805336E-07
-7.11382210254669E-07
-7.80675053596497E-07
-8.50391983985901E-07
-9.22571361064911E-07
-9.99402642250061E-07
-1.08320021629333E-06
-1.17635011672974E-06
-1.28129458427429E-06
-1.40054225921631E-06
-1.53663909435272E-06
-1.69210720062256E-06
-1.86939609050751E-06
-2.07079935073853E-06
-2.29839587211609E-06
-2.55408120155334E-06
-2.83954048156738E-06
-3.15619564056396E-06
-3.50516247749329E-06
-3.88721895217896E-06
-4.30283451080322E-06
-4.75222206115723E-06
-5.23537731170654E-06
-5.75207138061523E-06
-6.3018159866333E-06
-6.88383102416992E-06
-7.49709987640381E-06
-8.14039993286133E-06
-8.81227779388428E-06
-9.51102447509766E-06
-1.02346210479736E-05
-1.09806642532349E-05
-1.17464179992676E-05
-1.25289134979248E-05
-1.33249206542969E-05
-1.41308937072754E-05
-1.49429664611816E-05
-1.57568826675415E-05
-1.6568021774292E-05
-1.73715896606445E-05
-1.81626663208008E-05
-1.89361305236816E-05
-1.96866092681885E-05
-2.04086265563965E-05
-2.10967025756836E-05
-2.17456016540527E-05
-2.23505039215088E-05
-2.2906831741333E-05
-2.34101448059082E-05
-2.38562641143799E-05
-2.42414283752441E-05
-2.45624084472656E-05
-2.48165092468262E-05
-2.50014553070068E-05
-2.51151962280273E-05
-2.51559982299805E-05
-2.51226062774658E-05
-2.50143280029297E-05
-2.48310050964355E-05
-2.45728492736816E-05
-2.42403526306152E-05
-2.38342800140381E-05
-2.33557262420654E-05
-2.28062515258789E-05
-2.21880931854248E-05
-2.15039196014404E-05
-2.07567253112793E-05
-1.99500885009766E-05
-1.90880661010742E-05
-1.81753196716309E-05
-1.72174663543701E-05
-1.62206764221191E-05
-1.51911125183105E-05
-1.41353406906128E-05
-1.3060131072998E-05
-1.19716682434082E-05
-1.08762865066528E-05
-9.7799596786499E-06
-8.6880350112915E-06
-7.60647106170654E-06
-6.54077434539795E-06
-5.49509525299072E-06
-4.47276544570923E-06
-3.47690963745117E-06
-2.51080274581909E-06
-1.57903254032135E-06
-6.86444520950317E-07
1.64265796542168E-07
9.70482110977173E-07
1.72937917709351E-06
2.43695425987244E-06
3.0861496925354E-06
3.67073369026184E-06
4.1869215965271E-06
4.63340902328491E-06
5.01170063018799E-06
5.32171010971069E-06
5.55832529067993E-06
5.71519804000854E-06
5.79049205780029E-06
5.7870569229126E-06
5.71457242965698E-06
5.58542013168335E-06
5.4043493270874E-06
5.17605495452881E-06
4.91105937957764E-06
4.6247615814209E-06
4.33723258972168E-06
4.06339359283447E-06
3.80496048927307E-06
3.54829359054565E-06
3.27407503128052E-06
2.97258520126343E-06
2.64472961425781E-06
2.30310010910034E-06
1.96320521831512E-06
1.61912333965302E-06
1.24370527267456E-06
8.06736826896667E-07
2.86875605583191E-07
-3.23215126991272E-07
-1.00644135475159E-06
-1.78343522548676E-06
-2.73759865760803E-06
-3.88550209999084E-06
-5.16942596435547E-06
-6.41141700744629E-06
-7.27810049057007E-06
-7.56397914886475E-06
-7.29985618591309E-06
-6.51562547683716E-06
-5.16388273239136E-06
-3.27920722961426E-06
-9.14953529834747E-07
1.50067234039307E-06
2.94874858856201E-06
2.72574472427368E-06
7.25022315979004E-07
-2.91616106033325E-06
-7.8712158203125E-06
-1.3806471824646E-05
-2.04065246582031E-05
-2.65103454589844E-05
-2.99101047515869E-05
-2.85494003295898E-05
-2.19713897705078E-05
-1.14930448532104E-05
1.50493621826172E-06
1.57568645477295E-05
3.2375072479248E-05
5.50654907226562E-05
8.38796691894531E-05
0.00011649306488037100
0.00014760144042968700
0.00016505709838867200
0.00015942750549316400
0.00012506573486328100
5.83476257324219E-05
-3.14333267211914E-05
-0.00012892530822753900
-0.00021763116455078100
-0.00027759735107421900
-0.00030132876586914100
-0.000293098388671875
-0.00026306124877929700
-0.00022852365112304700
-0.0002002041015625
-0.00018024304199218700
-0.00016675955200195300
-0.0001536994171142580
-0.00013815013122558600
-0.0001210514907836910
-0.00010425353240966800
-9.03557357788086E-05
-7.99283065795898E-05
-7.18541946411133E-05
-6.49514770507813E-05
-5.78451156616211E-05
-4.99455718994141E-05
-4.1360912322998E-05
-3.21628265380859E-05
-2.26446132659912E-05
-1.32252178192139E-05
-4.23741722106934E-06
3.89538383483887E-06
1.07472286224365E-05
1.61631660461426E-05
2.0148738861084E-05
2.27806835174561E-05
2.42473297119141E-05
2.4730094909668E-05
2.43986167907715E-05
2.34866943359375E-05
2.22470855712891E-05
2.08774814605713E-05
1.95213947296143E-05
1.82745513916016E-05
1.72036170959473E-05
1.63987197875977E-05
1.59519824981689E-05
1.59257478713989E-05
1.63513259887695E-05
1.72290153503418E-05
1.85447444915771E-05
2.02807998657227E-05
2.24140758514404E-05
2.49043464660645E-05
2.76876583099365E-05
3.06841621398926E-05
3.380322265625E-05
3.69591979980469E-05
4.00907325744629E-05
4.31533622741699E-05
4.6106315612793E-05
4.89104957580566E-05
5.15333633422852E-05
5.39541397094727E-05
5.61698722839355E-05
5.81897048950195E-05
6.00212364196777E-05
6.16717376708984E-05
6.31511611938477E-05
6.44757232666016E-05
6.56726837158203E-05
6.67742385864258E-05
6.78146133422851E-05
6.88280944824219E-05
6.98395538330078E-05
7.08663864135742E-05
7.19235458374023E-05
7.30211715698242E-05
7.41648864746094E-05
7.53568267822266E-05
7.65924911499023E-05
7.78629913330078E-05
7.91626663208008E-05
8.04873733520508E-05
8.18324584960938E-05
8.31930465698242E-05
8.45612182617187E-05
8.59273529052734E-05
8.72819137573242E-05
8.86146469116211E-05
8.99158248901367E-05
9.11766967773437E-05
9.23887786865234E-05
9.35447540283203E-05
9.46385650634766E-05
9.56645202636719E-05
9.66179046630859E-05
9.74950866699219E-05
9.82914123535156E-05
9.90014343261719E-05
9.96195983886719E-05
0.00010013966369628900
0.0001005556869506840
0.00010086249542236300
0.00010105506896972700
0.00010112861633300800
0.00010107943725585900
0.00010090474700927700
0.00010060261535644500
0.00010017224884033200
9.96135101318359E-05
9.89268341064453E-05
9.81134185791016E-05
9.71751174926758E-05
9.6114372253418E-05
9.49342727661133E-05
9.36385345458984E-05
9.22314147949219E-05
9.07176742553711E-05
8.91024169921875E-05
8.73910446166992E-05
8.55894393920898E-05
8.37037963867187E-05
8.1740478515625E-05
7.97059707641601E-05
7.76067199707031E-05
7.54492797851562E-05
7.32403869628906E-05
7.09869155883789E-05
6.86957855224609E-05
6.63740386962891E-05
6.40287933349609E-05
6.16672019958496E-05
5.92965087890625E-05
5.69239349365234E-05
5.45565719604492E-05
5.2201301574707E-05
4.98647842407227E-05
4.755322265625E-05
4.52723388671875E-05
4.30273971557617E-05
4.08231620788574E-05
3.86638870239258E-05
3.65533752441406E-05
3.44948844909668E-05
3.24911842346191E-05
3.05446662902832E-05
2.86573390960693E-05
2.6830867767334E-05
2.50666084289551E-05
2.33656177520752E-05
2.17287178039551E-05
2.0156566619873E-05
1.86496639251709E-05
1.72084102630615E-05
1.5833104133606E-05
1.45239372253418E-05
1.3280987739563E-05
1.21041927337646E-05
1.09933071136475E-05
9.94787120819092E-06
8.9671802520752E-06
8.05024147033691E-06
7.19576025009155E-06
6.40215587615967E-06
5.66756963729858E-06
4.98990249633789E-06
4.36683750152588E-06
3.79587125778198E-06
3.2743489742279E-06
2.7995171546936E-06
2.36855578422546E-06
1.97859251499176E-06
1.62672305107117E-06
1.31003046035767E-06
1.02560949325562E-06
7.70589411258698E-07
5.42150974273682E-07
3.37510764598846E-07
1.53900384902954E-07
-1.1438176035881E-08
-1.61287069320679E-07
-2.98489034175873E-07
-4.25979912281036E-07
-5.46840906143188E-07
-6.64329051971435E-07
-7.81856417655945E-07
-9.02964115142822E-07
-1.03131198883057E-06
-1.17061769962311E-06
-1.32460999488831E-06
-1.49698960781097E-06
-1.69132256507874E-06
-1.91098344326019E-06
-2.15914249420166E-06
-2.43872737884521E-06
-2.75239562988281E-06
-3.10253119468689E-06
-3.49118399620056E-06
-3.92002773284912E-06
-4.39040994644165E-06
-4.90332460403442E-06
-5.45941257476807E-06
-6.0589804649353E-06
-6.70193386077881E-06
-7.38779211044312E-06
-8.11576747894287E-06
-8.88480186462402E-06
-9.69361782073974E-06
-1.05407638549805E-05
-1.14245471954346E-05
-1.23429927825928E-05
-1.32939701080322E-05
-1.42751407623291E-05
-1.52839193344116E-05
-1.63174648284912E-05
-1.73725147247314E-05
-1.84453639984131E-05
-1.95320167541504E-05
-2.06282386779785E-05
-2.17294960021973E-05
-2.28310127258301E-05
-2.39277439117432E-05
-2.50143356323242E-05
-2.60854034423828E-05
-2.71355762481689E-05
-2.81594543457031E-05
-2.91516437530518E-05
-3.01067543029785E-05
-3.10194206237793E-05
-3.18845977783203E-05
-3.26977119445801E-05
-3.34545288085938E-05
-3.41512260437012E-05
-3.4784294128418E-05
-3.53505249023438E-05
-3.58473472595215E-05
-3.62728881835938E-05
-3.66257743835449E-05
-3.69050750732422E-05
-3.71101531982422E-05
-3.72405776977539E-05
-3.72964630126953E-05
-3.72786407470703E-05
-3.71882705688477E-05
-3.70268402099609E-05
-3.67961273193359E-05
-3.64980201721191E-05
-3.61349601745605E-05
-3.57102890014648E-05
-3.52278175354004E-05
-3.46916809082031E-05
-3.41065063476563E-05
-3.34771728515625E-05
-3.28089599609375E-05
-3.21080627441406E-05
-3.13809814453125E-05
-3.06342220306396E-05
-2.98745231628418E-05
-2.91084270477295E-05
-2.83420352935791E-05
-2.75817394256592E-05
-2.683349609375E-05
-2.61028289794922E-05
-2.53956775665283E-05
-2.47169399261475E-05
-2.40701789855957E-05
-2.34583492279053E-05
-2.28835487365723E-05
-2.23477325439453E-05
-2.18539733886719E-05
-2.14052085876465E-05
-2.10028228759766E-05
-2.06486358642578E-05
-2.03444766998291E-05
-2.00927848815918E-05
-1.98986892700195E-05
-1.97668190002441E-05
-1.96997261047363E-05
-1.96972389221191E-05
-1.97562847137451E-05
-1.98743495941162E-05
-2.005322265625E-05
-2.02986087799072E-05
-2.06133899688721E-05
-2.09952659606934E-05
-2.1435604095459E-05
-2.192209815979E-05
-2.24480800628662E-05
-2.30092506408691E-05
-2.35969772338867E-05
-2.41953716278076E-05
-2.47844696044922E-05
-2.53474082946777E-05
-2.58786354064941E-05
-2.63921165466309E-05
-2.69074039459229E-05
-2.74362010955811E-05
-2.79807968139648E-05
-2.85226573944092E-05
-2.90397415161133E-05
-2.9538215637207E-05
-3.00442943572998E-05
-3.05916595458984E-05
-3.12125701904297E-05
-3.1910343170166E-05
-3.26667976379395E-05
-3.3518367767334E-05
-3.45401306152344E-05
-3.5740406036377E-05
-3.70639038085937E-05
-3.83144226074219E-05
-3.91574287414551E-05
-3.94041595458984E-05
-3.90632553100586E-05
-3.81646842956543E-05
-3.67371978759766E-05
-3.48800201416016E-05
-3.27039642333984E-05
-3.06632423400879E-05
-2.97012176513672E-05
-3.04496936798096E-05
-3.30391960144043E-05
-3.73321990966797E-05
-4.2852294921875E-05
-4.90205612182617E-05
-5.54533309936523E-05
-6.11274681091309E-05
-6.39949188232422E-05
-6.24415321350098E-05
-5.54761047363281E-05
-4.3348747253418E-05
-2.80288066864014E-05
-1.12083168029785E-05
6.52981758117676E-06
2.59934768676758E-05
4.81542434692383E-05
7.17829132080078E-05
9.20758819580078E-05
0.00010094290161132800
9.08383178710937E-05
5.82526931762695E-05
6.4284782409668E-06
-5.65752563476563E-05
-0.00012180259704589800
-0.00018024038696289100
-0.00022795986938476600
-0.00026328277587890600
-0.00028420892333984400
-0.0002938309631347660
-0.00029381439208984400
-0.00028532269287109400
-0.00027256530761718700
-0.0002556022033691410
-0.00023499105834960900
-0.0002134958801269530
-0.00019182093811035200
-0.00017181820678710900
-0.00015529983520507800
-0.00014206597900390600
-0.00013168350219726600
-0.00012355826568603500
-0.00011658125305175800
-0.00010969778442382800
-0.00010240972137451200
-9.44251480102539E-05
-8.56345443725586E-05
-7.63330154418945E-05
-6.68829650878906E-05
-5.75923385620117E-05
-4.89289131164551E-05
-4.13805770874023E-05
-3.51609268188477E-05
-3.03480033874512E-05
-2.69111099243164E-05
-2.46583290100098E-05
-2.34266548156738E-05
-2.3079906463623E-05
-2.34002494812012E-05
-2.41500720977783E-05
-2.51440925598145E-05
-2.622265625E-05
-2.7279857635498E-05
-2.82640571594238E-05
-2.9094310760498E-05
-2.96683158874512E-05
-2.99112663269043E-05
-2.97722759246826E-05
-2.92265510559082E-05
-2.82783145904541E-05
-2.69336700439453E-05
-2.51993751525879E-05
-2.31014633178711E-05
-2.06833038330078E-05
-1.80089359283447E-05
-1.51545734405518E-05
-1.21927633285522E-05
-9.19212627410889E-06
-6.20498561859131E-06
-3.26871252059937E-06
-4.20531153678894E-07
2.30441045761108E-06
4.88301753997803E-06
7.30349969863892E-06
9.56429767608643E-06
1.167502784729E-05
1.36436243057251E-05
1.5476749420166E-05
1.71877326965332E-05
1.87950553894043E-05
2.03242168426514E-05
2.18040428161621E-05
2.32638874053955E-05
2.47333545684814E-05
2.62344970703125E-05
2.77822952270508E-05
2.93880367279053E-05
3.10581550598144E-05
3.2794303894043E-05
3.45949363708496E-05
3.64536743164062E-05
3.83593368530273E-05
4.03026885986328E-05
4.22757301330566E-05
4.42695770263672E-05
4.62753295898437E-05
4.82818832397461E-05
5.02764205932617E-05
5.22454452514648E-05
5.41748046875E-05
5.60511741638184E-05
5.78622817993164E-05
5.95966339111328E-05
6.12438697814941E-05
6.27946166992187E-05
6.42400512695312E-05
6.55729141235352E-05
6.67874450683594E-05
6.78773880004883E-05
6.88361587524414E-05
6.96572570800781E-05
7.03340454101562E-05
7.08608932495117E-05
7.12334747314453E-05
7.14478378295898E-05
7.15005874633789E-05
7.13896484375E-05
7.11140441894531E-05
7.06741638183594E-05
7.00718078613281E-05
6.93095855712891E-05
6.83908462524414E-05
6.73199234008789E-05
6.61019592285156E-05
6.4743049621582E-05
6.32502365112305E-05
6.16312980651856E-05
5.98946952819824E-05
5.80495529174805E-05
5.61054801940918E-05
5.40728073120117E-05
5.19624710083008E-05
4.97856979370117E-05
4.75539627075195E-05
4.52787551879883E-05
4.29715003967285E-05
4.06436767578125E-05
3.83067893981934E-05
3.59720802307129E-05
3.36504974365234E-05
3.13526992797852E-05
2.9088939666748E-05
2.68691253662109E-05
2.47027473449707E-05
2.25987434387207E-05
2.05653915405273E-05
1.86103515625E-05
1.67406196594238E-05
1.49624042510986E-05
1.3281135559082E-05
1.17014598846436E-05
1.02272071838379E-05
8.8614501953125E-06
7.6065034866333E-06
6.46392011642456E-06
5.43449831008911E-06
4.5183310508728E-06
3.7148003578186E-06
3.0225841999054E-06
2.43968987464905E-06
1.96348106861115E-06
1.59072685241699E-06
1.31761848926544E-06
1.13981962203979E-06
1.05254220962524E-06
1.05059933662415E-06
1.1284738779068E-06
1.28038251399994E-06
1.50029706954956E-06
1.78198802471161E-06
2.1191074848175E-06
2.50523567199707E-06
2.933917760849E-06
3.3987307548523E-06
3.89332962036133E-06
4.41148853302002E-06
4.94715070724487E-06
5.49447631835937E-06
6.04785060882568E-06
6.60190963745117E-06
7.15156555175781E-06
7.69199275970459E-06
8.21862602233887E-06
8.72717094421387E-06
9.21359825134277E-06
9.67415809631348E-06
1.01053876876831E-05
1.05041313171387E-05
1.08675384521484E-05
1.11930980682373E-05
1.14786386489868E-05
1.17223463058472E-05
1.19227619171143E-05
1.20787734985352E-05
1.21895980834961E-05
1.22547597885132E-05
1.22740440368652E-05
1.22475118637085E-05
1.21754951477051E-05
1.2058557510376E-05
1.18974723815918E-05
1.16932134628296E-05
1.14469089508057E-05
1.11598796844482E-05
1.08336544036865E-05
1.04699001312256E-05
1.00703582763672E-05
9.63682079315186E-06
9.17111396789551E-06
8.67505264282227E-06
8.1504602432251E-06
7.59915161132812E-06
7.02285575866699E-06
6.42327213287354E-06
5.80209922790527E-06
5.16105461120605E-06
4.50190925598145E-06
3.82650303840637E-06
3.13671326637268E-06
2.43440651893616E-06
1.72143518924713E-06
9.99599874019623E-07
2.706658244133E-07
-4.63706016540527E-07
-1.20201253890991E-06
-1.94284272193909E-06
-2.68489766120911E-06
-3.42686486244202E-06
-4.16729259490967E-06
-4.90470695495605E-06
-5.6376895904541E-06
-6.36472749710083E-06
-7.08418941497803E-06
-7.79439830780029E-06
-8.49353885650635E-06
-9.17989921569824E-06
-9.85207366943359E-06
-1.0508731842041E-05
-1.11485109329224E-05
-1.17700395584106E-05
-1.23719463348389E-05
-1.29527921676636E-05
-1.35111694335937E-05
-1.40455894470215E-05
-1.45541934967041E-05
-1.50349559783936E-05
-1.54857759475708E-05
-1.59045581817627E-05
-1.6289363861084E-05
-1.66383934020996E-05
-1.69499206542969E-05
-1.72222785949707E-05
-1.7453929901123E-05
-1.76433963775635E-05
-1.7789379119873E-05
-1.78904514312744E-05
-1.79448890686035E-05
-1.79510307312012E-05
-1.79072303771973E-05
-1.7812141418457E-05
-1.76651268005371E-05
-1.74657783508301E-05
-1.72136650085449E-05
-1.69091606140137E-05
-1.65535221099854E-05
-1.6148645401001E-05
-1.56973686218262E-05
-1.52024068832397E-05
-1.46656322479248E-05
-1.40891456604004E-05
-1.34755420684814E-05
-1.28272113800049E-05
-1.21462688446045E-05
-1.14342184066772E-05
-1.06915197372437E-05
-9.91952323913574E-06
-9.12164211273193E-06
-8.30263233184814E-06
-7.46832180023193E-06
-6.62462043762207E-06
-5.77736377716064E-06
-4.93301582336426E-06
-4.09887266159058E-06
-3.28206610679626E-06
-2.488445520401E-06
-1.72124373912811E-06
-9.81014490127563E-07
-2.70054459571838E-07
4.07337665557861E-07
1.04393303394318E-06
1.62883687019348E-06
2.15460586547852E-06
2.61774969100952E-06
3.01637506484985E-06
3.3499391078949E-06
3.62043142318726E-06
3.8347578048706E-06
4.00741577148437E-06
4.16189861297607E-06
4.31982660293579E-06
4.49439430236816E-06
4.68803024291992E-06
4.89398097991943E-06
5.1066632270813E-06
5.31806898117065E-06
5.52419853210449E-06
5.72491884231567E-06
5.91153049468994E-06
6.07782077789307E-06
6.2195143699646E-06
6.3304557800293E-06
6.4023380279541E-06
6.41756820678711E-06
6.33696842193604E-06
6.09908485412598E-06
5.64401483535767E-06
4.92107486724854E-06
3.90390968322754E-06
2.58842754364014E-06
9.72630739212036E-07
-9.2789900302887E-07
-3.09681797027588E-06
-5.51613616943359E-06
-8.14442253112793E-06
-1.09480991363525E-05
-1.38961057662964E-05
-1.69443473815918E-05
-2.00538673400879E-05
-2.31835079193115E-05
-2.62526798248291E-05
-2.91520080566406E-05
-3.17706623077393E-05
-3.39814109802246E-05
-3.5682544708252E-05
-3.67971076965332E-05
-3.72249603271484E-05
-3.69013977050781E-05
-3.57673454284668E-05
-3.37355346679687E-05
-3.07907562255859E-05
-2.69592552185059E-05
-2.23542137145996E-05
-1.72811145782471E-05
-1.20733947753906E-05
-6.95967435836792E-06
-2.21024799346924E-06
1.89267408847809E-06
5.22053146362305E-06
7.61740112304687E-06
9.40946006774902E-06
1.16638221740723E-05
1.52197046279907E-05
2.08021507263184E-05
2.84365730285645E-05
3.68838081359863E-05
4.59975814819336E-05
5.62082557678223E-05
6.79730072021484E-05
8.28545837402344E-05
9.82694931030273E-05
0.00010860857391357400
0.00010929238128662100
9.33465805053711E-05
5.9306468963623E-05
1.17463226318359E-05
-4.70191192626953E-05
-0.00010892333984375
-0.00016562841796875000
-0.00021403201293945300
-0.00024716621398925800
-0.00026365359497070300
-0.00026869781494140600
-0.00026459417724609400
-0.00025595211791992200
-0.00024568414306640600
-0.00023100418090820300
-0.00021123233032226600
-0.00018745837402343700
-0.00016096742248535200
-0.00013491911315918000
-0.00011161354064941400
-9.14512176513672E-05
-7.43143310546875E-05
-6.02039108276367E-05
-4.91926040649414E-05
-4.08247451782227E-05
-3.46473770141602E-05
-3.0008171081543E-05
-2.59093360900879E-05
-2.20336399078369E-05
-1.84156627655029E-05
-1.47449798583984E-05
-1.07171440124512E-05
-6.34624481201172E-06
-1.63202404975891E-06
3.13926959037781E-06
7.33435726165771E-06
1.07292022705078E-05
1.33265209197998E-05
1.50633411407471E-05
1.59762153625488E-05
1.61399250030518E-05
1.56075038909912E-05
1.46000509262085E-05
1.34957218170166E-05
1.25339450836182E-05
1.18641691207886E-05
1.15940780639648E-05
1.17312421798706E-05
1.22961673736572E-05
1.33192253112793E-05
1.47731971740723E-05
1.65935878753662E-05
1.87179584503174E-05
2.10842227935791E-05
2.36309642791748E-05
2.63124809265137E-05
2.90731716156006E-05
3.18445320129394E-05
3.45719337463379E-05
3.72098846435547E-05
3.97183036804199E-05
4.20642623901367E-05
4.42273635864258E-05
4.61990966796875E-05
4.79765586853027E-05
4.95675621032715E-05
5.09802513122559E-05
5.22218132019043E-05
5.33083114624023E-05
5.42615127563477E-05
5.51076278686523E-05
5.58746490478516E-05
5.65931549072266E-05
5.72952499389648E-05
5.80078659057617E-05
5.87537078857422E-05
5.95498008728027E-05
6.04070472717285E-05
6.13314895629883E-05
6.23251113891602E-05
6.33860778808594E-05
6.45083618164062E-05
6.56870422363281E-05
6.69179153442383E-05
6.81955947875977E-05
6.95143966674805E-05
7.08666687011719E-05
7.22434005737305E-05
7.36341934204101E-05
7.50275726318359E-05
7.64124755859375E-05
7.77783432006836E-05
7.91154861450195E-05
8.04154510498047E-05
8.16704559326172E-05
8.28729858398437E-05
8.40168075561523E-05
8.50967254638672E-05
8.61067123413086E-05
8.70401763916016E-05
8.78900909423828E-05
8.86487197875977E-05
8.93088226318359E-05
8.98638610839844E-05
9.03071899414062E-05
9.06323318481445E-05
9.08336029052734E-05
9.09061584472656E-05
9.08461761474609E-05
9.0651008605957E-05
9.03187408447266E-05
8.98481826782227E-05
8.92391204833984E-05
8.84922409057617E-05
8.76092834472656E-05
8.6593017578125E-05
8.54470596313477E-05
8.4175910949707E-05
8.2784797668457E-05
8.1279655456543E-05
7.96672668457031E-05
7.79551391601563E-05
7.61512832641602E-05
7.42640914916992E-05
7.23021240234375E-05
7.02739715576172E-05
6.81884231567383E-05
6.60543670654297E-05
6.38805313110352E-05
6.16755142211914E-05
5.94478378295898E-05
5.72058448791504E-05
5.49578742980957E-05
5.27122383117676E-05
5.04771423339844E-05
4.82606468200684E-05
4.60707015991211E-05
4.39150810241699E-05
4.18012084960938E-05
3.97360763549805E-05
3.77261962890625E-05
3.57774887084961E-05
3.3895263671875E-05
3.20841865539551E-05
3.03481941223145E-05
2.86905136108398E-05
2.71136779785156E-05
2.56195545196533E-05
2.42093200683594E-05
2.2883487701416E-05
2.16418972015381E-05
2.04837512969971E-05
1.94076156616211E-05
1.84114761352539E-05
1.74928207397461E-05
1.66487159729004E-05
1.58758955001831E-05
1.5170880317688E-05
1.45300455093384E-05
1.39497079849243E-05
1.34262256622314E-05
1.29560070037842E-05
1.25355100631714E-05
1.21612377166748E-05
1.18296890258789E-05
1.15373249053955E-05
1.12805423736572E-05
1.10556564331055E-05
1.08588752746582E-05
1.06863393783569E-05
1.05341625213623E-05
1.03984804153442E-05
1.02755146026611E-05
1.01616039276123E-05
1.00532398223877E-05
9.947096824646E-06
9.84003925323486E-06
9.72913360595703E-06
9.61166191101074E-06
9.48510456085205E-06
9.34717464447022E-06
9.19585990905762E-06
9.02945613861084E-06
8.84659385681152E-06
8.64628410339355E-06
8.42786026000977E-06
8.19095420837402E-06
7.93548679351807E-06
7.66157722473144E-06
7.36943864822388E-06
7.05932521820068E-06
6.73143148422241E-06
6.38581943511963E-06
6.02248239517212E-06
5.64133977890015E-06
5.2422308921814E-06
4.82502031326294E-06
4.38960933685303E-06
3.9359564781189E-06
3.46413993835449E-06
2.97434735298157E-06
2.46685647964478E-06
1.94204378128052E-06
1.40033376216888E-06
8.42136383056641E-07
2.67918527126312E-07
-3.21813821792603E-07
-9.26500678062439E-07
-1.54541826248169E-06
-2.17775535583496E-06
-2.82260823249817E-06
-3.47887873649597E-06
-4.14539051055908E-06
-4.82102298736572E-06
-5.50469875335693E-06
-6.19547367095947E-06
-6.89262962341309E-06
-7.59549522399902E-06
-8.30346488952637E-06
-9.01611328125E-06
-9.73300457000732E-06
-1.04535350799561E-05
-1.11769390106201E-05
-1.19021635055542E-05
-1.26278076171875E-05
-1.33524179458618E-05
-1.40744485855103E-05
-1.47922010421753E-05
-1.55040082931519E-05
-1.62081832885742E-05
-1.69029979705811E-05
-1.75867881774902E-05
-1.82578773498535E-05
-1.89144706726074E-05
-1.95546836853027E-05
-2.01764068603516E-05
-2.07772197723389E-05
-2.13546714782715E-05
-2.19062538146973E-05
-2.24293899536133E-05
-2.29217586517334E-05
-2.33810768127441E-05
-2.38051853179932E-05
-2.41924381256104E-05
-2.45413856506348E-05
-2.48503761291504E-05
-2.51176795959473E-05
-2.53414173126221E-05
-2.55194416046143E-05
-2.56498317718506E-05
-2.57308654785156E-05
-2.57604866027832E-05
-2.57367076873779E-05
-2.56582984924316E-05
-2.5524658203125E-05
-2.53360023498535E-05
-2.50935668945312E-05
-2.47984199523926E-05
-2.44513530731201E-05
-2.4053617477417E-05
-2.36064987182617E-05
-2.31108798980713E-05
-2.25676937103271E-05
-2.19771518707275E-05
-2.13384552001953E-05
-2.06518154144287E-05
-1.99184684753418E-05
-1.91406211853027E-05
-1.83225440979004E-05
-1.74689674377441E-05
-1.65844993591309E-05
-1.56749219894409E-05
-1.47466144561768E-05
-1.38057317733765E-05
-1.2859112739563E-05
-1.191126537323E-05
-1.09632835388184E-05
-1.00185298919678E-05
-9.08145141601562E-06
-8.15841293334961E-06
-7.26096487045288E-06
-6.39737272262573E-06
-5.57134437561035E-06
-4.78749084472656E-06
-4.0480751991272E-06
-3.35067343711853E-06
-2.69296646118164E-06
-2.06663489341736E-06
-1.45290100574493E-06
-8.37184727191925E-07
-2.05637499690056E-07
4.53405201435089E-07
1.13626408576965E-06
1.83872675895691E-06
2.55733394622803E-06
3.28614830970764E-06
4.02553796768188E-06
4.77000188827515E-06
5.50086450576782E-06
6.19930076599121E-06
6.84849262237549E-06
7.42219161987305E-06
7.89729976654053E-06
8.24158000946045E-06
8.39265918731689E-06
8.29573726654053E-06
7.89723968505859E-06
7.14008283615112E-06
6.00128555297852E-06
4.46867275238037E-06
2.53108406066895E-06
1.91072344779968E-07
-2.54662442207336E-06
-5.66677856445312E-06
-9.12426567077637E-06
-1.28557090759277E-05
-1.67995376586914E-05
-2.08844089508057E-05
-2.50466575622559E-05
-2.92177085876465E-05
-3.32859878540039E-05
-3.71353454589844E-05
-4.06346702575684E-05
-4.3638744354248E-05
-4.60392379760742E-05
-4.773388671875E-05
-4.86291732788086E-05
-4.86285667419434E-05
-4.76099548339844E-05
-4.5520320892334E-05
-4.24079399108887E-05
-3.84347457885742E-05
-3.39002647399902E-05
-2.91227245330811E-05
-2.43269119262695E-05
-1.97859878540039E-05
-1.58370008468628E-05
-1.2593578338623E-05
-1.00340337753296E-05
-7.86307716369629E-06
-5.26476049423218E-06
-1.47890257835388E-06
4.01170825958252E-06
1.17588520050049E-05
2.19936027526855E-05
3.43447265625E-05
4.82351303100586E-05
6.2315788269043E-05
7.41818389892578E-05
8.17302932739258E-05
8.29000701904297E-05
7.60921020507813E-05
6.14358100891113E-05
3.86567039489746E-05
7.13931274414062E-06
-3.34293060302734E-05
-8.41351470947266E-05
-0.00014205108642578100
-0.00020010360717773400
-0.0002505751037597660
-0.00028467617797851600
-0.00030000817871093700
-0.0003009697570800780
-0.00029198904418945300
-0.00027878637695312500
-0.00026338775634765600
-0.00024335873413085900
-0.00021895443725585900
-0.00019124407958984400
-0.00016189935302734400
-0.00013456361389160200
-0.00011100712585449200
-9.15635147094727E-05
-7.70027770996094E-05
-6.71972198486328E-05
-6.12136459350586E-05
-5.81998329162598E-05
-5.70150146484375E-05
-5.6318286895752E-05
-5.55013847351074E-05
-5.42415237426758E-05
-5.19063262939453E-05
-4.8256778717041E-05
-4.34997749328613E-05
-3.79387359619141E-05
-3.21881294250488E-05
-2.69965591430664E-05
-2.26712913513184E-05
-1.93451633453369E-05
-1.72226123809814E-05
-1.62545032501221E-05
-1.6272819519043E-05
-1.70999984741211E-05
-1.83769779205322E-05
-1.97131767272949E-05
-2.08990516662598E-05
-2.17854156494141E-05
-2.22514915466309E-05
-2.22821578979492E-05
-2.18603439331055E-05
-2.09665203094482E-05
-1.96501655578613E-05
-1.79689445495605E-05
-1.59563369750977E-05
-1.36544008255005E-05
-1.11055736541748E-05
-8.35240268707275E-06
-5.46882629394531E-06
-2.53820776939392E-06
3.78134667873383E-07
3.22977352142334E-06
5.97441005706787E-06
8.57839393615723E-06
1.10135803222656E-05
1.32629528045654E-05
1.53241987228394E-05
1.72033576965332E-05
1.89053249359131E-05
2.04343852996826E-05
2.17976226806641E-05
2.30075664520264E-05
2.40848636627197E-05
2.50555839538574E-05
2.59513263702393E-05
2.68064002990723E-05
2.76481704711914E-05
2.84976253509521E-05
2.93708534240723E-05
3.02778034210205E-05
3.12242126464844E-05
3.22120971679687E-05
3.32373161315918E-05
3.42917289733887E-05
3.53699493408203E-05
3.64682579040527E-05
3.75830764770508E-05
3.87112197875977E-05
3.98468894958496E-05
4.09824180603027E-05
4.21095886230469E-05
4.32189712524414E-05
4.43013801574707E-05
4.5348445892334E-05
4.63522415161133E-05
4.73058547973633E-05
4.82033958435059E-05
4.90393218994141E-05
4.98092346191406E-05
5.05098724365234E-05
5.11369743347168E-05
5.1685417175293E-05
5.21497077941895E-05
5.25236663818359E-05
5.2801570892334E-05
5.29785652160645E-05
5.30498428344727E-05
5.30108413696289E-05
5.28581199645996E-05
5.25891418457031E-05
5.22024078369141E-05
5.16976051330566E-05
5.1074893951416E-05
5.03349151611328E-05
4.94790306091309E-05
4.85091781616211E-05
4.74278373718262E-05
4.62381858825684E-05
4.49439544677734E-05
4.35493698120117E-05
4.20592498779297E-05
4.0478874206543E-05
3.8814037322998E-05
3.70711517333984E-05
3.52570877075195E-05
3.33790512084961E-05
3.14445018768311E-05
2.94610710144043E-05
2.74366226196289E-05
2.5379337310791E-05
2.32975578308105E-05
2.11996955871582E-05
1.90942611694336E-05
1.69898300170898E-05
1.48949813842773E-05
1.28182878494263E-05
1.07681694030762E-05
8.75274753570557E-06
6.77986812591553E-06
4.85703372955322E-06
2.99118638038635E-06
1.18870937824249E-06
-5.4456889629364E-07
-2.20342326164246E-06
-3.78315925598145E-06
-5.27959394454956E-06
-6.68912124633789E-06
-8.00868988037109E-06
-9.23573684692383E-06
-1.03682117462158E-05
-1.14045810699463E-05
-1.23438062667847E-05
-1.31853933334351E-05
-1.39293689727783E-05
-1.45762729644775E-05
-1.51271591186523E-05
-1.55835666656494E-05
-1.59474687576294E-05
-1.62212810516357E-05
-1.64078407287598E-05
-1.65103874206543E-05
-1.65325927734375E-05
-1.64784774780273E-05
-1.63523578643799E-05
-1.61588706970215E-05
-1.59029159545898E-05
-1.55896320343018E-05
-1.52243423461914E-05
-1.48124885559082E-05
-1.43595809936523E-05
-1.38711767196655E-05
-1.33528518676758E-05
-1.28101615905762E-05
-1.22486200332642E-05
-1.16736621856689E-05
-1.10906114578247E-05
-1.05046815872192E-05
-9.92095756530762E-06
-9.34438037872314E-06
-8.7797269821167E-06
-8.23159694671631E-06
-7.70434808731079E-06
-7.2021017074585E-06
-6.72872066497803E-06
-6.28778409957886E-06
-5.88258743286133E-06
-5.51610231399536E-06
-5.19092750549316E-06
-4.90929841995239E-06
-4.67309808731079E-06
-4.48384571075439E-06
-4.34269142150879E-06
-4.25041198730469E-06
-4.20734739303589E-06
-4.21345138549805E-06
-4.26833581924439E-06
-4.37128400802612E-06
-4.52129459381104E-06
-4.71708726882935E-06
-4.95713424682617E-06
-5.23969030380249E-06
-5.56283760070801E-06
-5.92449426651001E-06
-6.32240676879883E-06
-6.75413179397583E-06
-7.21697616577148E-06
-7.70801734924316E-06
-8.22415733337402E-06
-8.76212882995605E-06
-9.31856536865234E-06
-9.88998889923096E-06
-1.04727611541748E-05
-1.10631504058838E-05
-1.16574440002441E-05
-1.22519750595093E-05
-1.28431272506714E-05
-1.34273586273193E-05
-1.40010671615601E-05
-1.4560661315918E-05
-1.51027297973633E-05
-1.56240110397339E-05
-1.61213760375977E-05
-1.65918655395508E-05
-1.70326080322266E-05
-1.74408683776855E-05
-1.78143196105957E-05
-1.81509418487549E-05
-1.84489841461182E-05
-1.87069053649902E-05
